time_s	mv
0.0	-0.236475
0.001	0.157934
0.002	0.418187
0.003	0.461226
0.004	0.289504
0.005	-0.037184
0.006	-0.44281
0.007	-0.863064
0.008	-1.252962
0.009	-1.583506
0.01	-1.836597
0.011	-2.001394
0.012	-2.076222
0.013	-2.073113
0.014	-2.014618
0.015	-1.918587
0.016	-1.7803
0.017	-1.575227
0.018	-1.292924
0.019	-0.966695
0.02	-0.660829
0.021	-0.435897
0.022	-0.32923
0.023	-0.351248
0.024	-0.486378
0.025	-0.697087
0.026	-0.932249
0.027	-1.140317
0.028	-1.286163
0.029	-1.363492
0.03	-1.391423
0.031	-1.397295
0.032	-1.399942
0.033	-1.404364
0.034	-1.406702
0.035	-1.399795
0.036	-1.380045
0.037	-1.363128
0.038	-1.391372
0.039	-1.503092
0.04	-1.686132
0.041	-1.877529
0.042	-2.011421
0.043	-2.059357
0.044	-2.03458
0.045	-1.97466
0.046	-1.923539
0.047	-1.918609
0.048	-1.978488
0.049	-2.093129
0.05	-2.225657
0.051	-2.328746
0.052	-2.364137
0.053	-2.314197
0.054	-2.184378
0.055	-1.999588
0.056	-1.800505
0.057	-1.646214
0.058	-1.607962
0.059	-1.725754
0.06	-1.959192
0.061	-2.203684
0.062	-2.361582
0.063	-2.393495
0.064	-2.31922
0.065	-2.191195
0.066	-2.066981
0.067	-1.990135
0.068	-1.980097
0.069	-2.03018
0.07	-2.112101
0.071	-2.185847
0.072	-2.213186
0.073	-2.170638
0.074	-2.057687
0.075	-1.894587
0.076	-1.699857
0.077	-1.466816
0.078	-1.179519
0.079	-0.848026
0.08	-0.514403
0.081	-0.237106
0.082	-0.07231
0.083	-0.050891
0.084	-0.165361
0.085	-0.379501
0.086	-0.650821
0.087	-0.948084
0.088	-1.2516
0.089	-1.540733
0.09	-1.78591
0.091	-1.954818
0.092	-2.027651
0.093	-2.008506
0.094	-1.920935
0.095	-1.786373
0.096	-1.598912
0.097	-1.32345
0.098	-0.934081
0.099	-0.456697
0.1	0.030324
0.101	0.426358
0.102	0.64515
0.103	0.647949
0.104	0.455154
0.105	0.130885
0.106	-0.244569
0.107	-0.601354
0.108	-0.897336
0.109	-1.11946
0.11	-1.272735
0.111	-1.367953
0.112	-1.414213
0.113	-1.417776
0.114	-1.385537
0.115	-1.325572
0.116	-1.242036
0.117	-1.139069
0.118	-1.037391
0.119	-0.968767
0.12	-0.945559
0.121	-0.955273
0.122	-0.98341
0.123	-1.025536
0.124	-1.079493
0.125	-1.133185
0.126	-1.163879
0.127	-1.151725
0.128	-1.093735
0.129	-1.005478
0.13	-0.912001
0.131	-0.837189
0.132	-0.797376
0.133	-0.800817
0.134	-0.849022
0.135	-0.93255
0.136	-1.023528
0.137	-1.082959
0.138	-1.089573
0.139	-1.054943
0.14	-1.004541
0.141	-0.959548
0.142	-0.9355
0.143	-0.939826
0.144	-0.965563
0.145	-0.989414
0.146	-0.977023
0.147	-0.896464
0.148	-0.738682
0.149	-0.531679
0.15	-0.331241
0.151	-0.19212
0.152	-0.143916
0.153	-0.187007
0.154	-0.303265
0.155	-0.470728
0.156	-0.674184
0.157	-0.913882
0.158	-1.208324
0.159	-1.564541
0.16	-1.936648
0.161	-2.237909
0.162	-2.396837
0.163	-2.39228
0.164	-2.24948
0.165	-2.021263
0.166	-1.770098
0.167	-1.551361
0.168	-1.399227
0.169	-1.319857
0.17	-1.294504
0.171	-1.291043
0.172	-1.27958
0.173	-1.245455
0.174	-1.193479
0.175	-1.14551
0.176	-1.136203
0.177	-1.210121
0.178	-1.411433
0.179	-1.745118
0.18	-2.139092
0.181	-2.471239
0.182	-2.643073
0.183	-2.624073
0.184	-2.443693
0.185	-2.161092
0.186	-1.842473
0.187	-1.549859
0.188	-1.328208
0.189	-1.190885
0.19	-1.118092
0.191	-1.073653
0.192	-1.029948
0.193	-0.984628
0.194	-0.957066
0.195	-0.963828
0.196	-0.988971
0.197	-0.981298
0.198	-0.891866
0.199	-0.713317
0.2	-0.484272
0.201	-0.269211
0.202	-0.129343
0.203	-0.094274
0.204	-0.152869
0.205	-0.266943
0.206	-0.394521
0.207	-0.508834
0.208	-0.602616
0.209	-0.677992
0.21	-0.73527
0.211	-0.772023
0.212	-0.790274
0.213	-0.802204
0.214	-0.826858
0.215	-0.871539
0.216	-0.905572
0.217	-0.864726
0.218	-0.7024
0.219	-0.432747
0.22	-0.123337
0.221	0.139074
0.222	0.284682
0.223	0.287483
0.224	0.170345
0.225	-0.009692
0.226	-0.184381
0.227	-0.298139
0.228	-0.327946
0.229	-0.289525
0.23	-0.222799
0.231	-0.168031
0.232	-0.151694
0.233	-0.185472
0.234	-0.269807
0.235	-0.396392
0.236	-0.551384
0.237	-0.7288
0.238	-0.942652
0.239	-1.20265
0.24	-1.475143
0.241	-1.693282
0.242	-1.805241
0.243	-1.800634
0.244	-1.701125
0.245	-1.538529
0.246	-1.340925
0.247	-1.131543
0.248	-0.931948
0.249	-0.761718
0.25	-0.634779
0.251	-0.555588
0.252	-0.519169
0.253	-0.517345
0.254	-0.545274
0.255	-0.602032
0.256	-0.692816
0.257	-0.838932
0.258	-1.073771
0.259	-1.401902
0.26	-1.761003
0.261	-2.048413
0.262	-2.187485
0.263	-2.162554
0.264	-2.007478
0.265	-1.776855
0.266	-1.52526
0.267	-1.298068
0.268	-1.124364
0.269	-1.011766
0.27	-0.94934
0.271	-0.917382
0.272	-0.897253
0.273	-0.878174
0.274	-0.860077
0.275	-0.849469
0.276	-0.854278
0.277	-0.887781
0.278	-0.970194
0.279	-1.106252
0.28	-1.261119
0.281	-1.378724
0.282	-1.423037
0.283	-1.39177
0.284	-1.301204
0.285	-1.171824
0.286	-1.027894
0.287	-0.899413
0.288	-0.812712
0.289	-0.775095
0.29	-0.770629
0.291	-0.773441
0.292	-0.767324
0.293	-0.756079
0.294	-0.755515
0.295	-0.768541
0.296	-0.759111
0.297	-0.658572
0.298	-0.41874
0.299	-0.059596
0.3	0.337225
0.301	0.667597
0.302	0.846592
0.303	0.841736
0.304	0.682061
0.305	0.438039
0.306	0.187995
0.307	-0.010658
0.308	-0.13564
0.309	-0.196681
0.31	-0.21982
0.311	-0.230648
0.312	-0.247136
0.313	-0.281406
0.314	-0.339666
0.315	-0.417166
0.316	-0.49494
0.317	-0.549961
0.318	-0.577711
0.319	-0.593908
0.32	-0.609499
0.321	-0.622662
0.322	-0.632822
0.323	-0.643519
0.324	-0.65183
0.325	-0.641974
0.326	-0.589526
0.327	-0.474507
0.328	-0.298551
0.329	-0.094063
0.33	0.087495
0.331	0.202376
0.332	0.233236
0.333	0.187021
0.334	0.081793
0.335	-0.064299
0.336	-0.241069
0.337	-0.454994
0.338	-0.726004
0.339	-1.053826
0.34	-1.385658
0.341	-1.63895
0.342	-1.755796
0.343	-1.728278
0.344	-1.588321
0.345	-1.387347
0.346	-1.179282
0.347	-1.008168
0.348	-0.89862
0.349	-0.850566
0.35	-0.842648
0.351	-0.844693
0.352	-0.831907
0.353	-0.793792
0.354	-0.737677
0.355	-0.687261
0.356	-0.677111
0.357	-0.749165
0.358	-0.940925
0.359	-1.246271
0.36	-1.587653
0.361	-1.854893
0.362	-1.972979
0.363	-1.928048
0.364	-1.750843
0.365	-1.494119
0.366	-1.218294
0.367	-0.979237
0.368	-0.813362
0.369	-0.724819
0.37	-0.686854
0.371	-0.661733
0.372	-0.62642
0.373	-0.584778
0.374	-0.557729
0.375	-0.556839
0.376	-0.556498
0.377	-0.496858
0.378	-0.330246
0.379	-0.063362
0.38	0.243561
0.381	0.506108
0.382	0.65424
0.383	0.662623
0.384	0.55449
0.385	0.382127
0.386	0.199359
0.387	0.04089
0.388	-0.0813
0.389	-0.168816
0.39	-0.227196
0.391	-0.261861
0.392	-0.280909
0.393	-0.299597
0.394	-0.335097
0.395	-0.386637
0.396	-0.415858
0.397	-0.359959
0.398	-0.182265
0.399	0.091164
0.4	0.385588
0.401	0.617231
0.402	0.726807
0.403	0.698237
0.404	0.560184
0.405	0.373018
0.406	0.206546
0.407	0.113838
0.408	0.110942
0.409	0.174021
0.41	0.256777
0.411	0.315171
0.412	0.322745
0.413	0.271469
0.414	0.165434
0.415	0.018426
0.416	-0.15127
0.417	-0.339806
0.418	-0.563857
0.419	-0.826953
0.42	-1.087384
0.421	-1.279467
0.422	-1.360284
0.423	-1.328513
0.424	-1.211552
0.425	-1.045014
0.426	-0.861444
0.427	-0.688405
0.428	-0.546817
0.429	-0.446425
0.43	-0.383709
0.431	-0.347229
0.432	-0.326178
0.433	-0.315693
0.434	-0.318266
0.435	-0.341893
0.436	-0.401141
0.437	-0.52513
0.438	-0.748083
0.439	-1.06441
0.44	-1.399786
0.441	-1.650782
0.442	-1.750543
0.443	-1.694132
0.444	-1.520701
0.445	-1.285295
0.446	-1.040665
0.447	-0.827933
0.448	-0.670649
0.449	-0.572532
0.45	-0.52083
0.451	-0.494468
0.452	-0.473948
0.453	-0.449533
0.454	-0.424878
0.455	-0.414057
0.456	-0.428382
0.457	-0.464252
0.458	-0.509416
0.459	-0.551981
0.46	-0.578979
0.461	-0.581224
0.462	-0.561323
0.463	-0.527964
0.464	-0.48495
0.465	-0.431251
0.466	-0.371312
0.467	-0.320075
0.468	-0.292573
0.469	-0.289896
0.47	-0.298855
0.471	-0.304272
0.472	-0.302052
0.473	-0.303802
0.474	-0.324549
0.475	-0.35632
0.476	-0.35099
0.477	-0.239341
0.478	0.016405
0.479	0.383844
0.48	0.7723
0.481	1.075958
0.482	1.217631
0.483	1.178066
0.484	0.997608
0.485	0.751992
0.486	0.519207
0.487	0.352022
0.488	0.265357
0.489	0.242085
0.49	0.250083
0.491	0.257684
0.492	0.241779
0.493	0.190623
0.494	0.103965
0.495	-0.006827
0.496	-0.120303
0.497	-0.217783
0.498	-0.299543
0.499	-0.375854
0.5	-0.444487
0.501	-0.493282
0.502	-0.516794
0.503	-0.517099
0.504	-0.493729
0.505	-0.438316
0.506	-0.33743
0.507	-0.182722
0.508	0.015023
0.509	0.220953
0.51	0.390385
0.511	0.490638
0.512	0.510965
0.513	0.45833
0.514	0.348408
0.515	0.196171
0.516	0.008134
0.517	-0.223444
0.518	-0.513359
0.519	-0.849767
0.52	-1.171343
0.521	-1.398274
0.522	-1.482463
0.523	-1.424588
0.524	-1.259767
0.525	-1.03829
0.526	-0.812004
0.527	-0.622726
0.528	-0.492226
0.529	-0.418964
0.53	-0.384172
0.531	-0.363616
0.532	-0.339979
0.533	-0.310695
0.534	-0.286937
0.535	-0.286464
0.536	-0.3278
0.537	-0.430503
0.538	-0.608754
0.539	-0.84535
0.54	-1.078738
0.541	-1.235917
0.542	-1.276882
0.543	-1.205915
0.544	-1.054996
0.545	-0.863518
0.546	-0.666996
0.547	-0.494856
0.548	-0.368613
0.549	-0.296263
0.55	-0.26635
0.551	-0.249417
0.552	-0.214755
0.553	-0.151135
0.554	-0.070279
0.555	0.00252
0.556	0.032496
0.557	-0.024473
0.558	-0.203477
0.559	-0.489502
0.56	-0.801945
0.561	-1.040563
0.562	-1.146997
0.563	-1.123346
0.564	-1.0099
0.565	-0.857025
0.566	-0.71198
0.567	-0.613207
0.568	-0.578471
0.569	-0.595035
0.57	-0.627567
0.571	-0.639772
0.572	-0.613874
0.573	-0.55651
0.574	-0.486883
0.575	-0.411541
0.576	-0.305051
0.577	-0.122501
0.578	0.160077
0.579	0.516715
0.58	0.876834
0.581	1.153714
0.582	1.280955
0.583	1.240243
0.584	1.062611
0.585	0.805472
0.586	0.523956
0.587	0.253189
0.588	0.009561
0.589	-0.196173
0.59	-0.351294
0.591	-0.44623
0.592	-0.483191
0.593	-0.4773
0.594	-0.446462
0.595	-0.390172
0.596	-0.271723
0.597	-0.036823
0.598	0.333045
0.599	0.788584
0.6	1.22996
0.601	1.549109
0.602	1.673499
0.603	1.592258
0.604	1.352275
0.605	1.033563
0.606	0.719295
0.607	0.470224
0.608	0.309603
0.609	0.224454
0.61	0.18363
0.611	0.159071
0.612	0.134682
0.613	0.103881
0.614	0.066129
0.615	0.025702
0.616	-0.012688
0.617	-0.056328
0.618	-0.126967
0.619	-0.233933
0.62	-0.351789
0.621	-0.439648
0.622	-0.474538
0.623	-0.460602
0.624	-0.416231
0.625	-0.358385
0.626	-0.296619
0.627	-0.236669
0.628	-0.184636
0.629	-0.146329
0.63	-0.123668
0.631	-0.112072
0.632	-0.102722
0.633	-0.089585
0.634	-0.074133
0.635	-0.064427
0.636	-0.077964
0.637	-0.148383
0.638	-0.308925
0.639	-0.549489
0.64	-0.801257
0.641	-0.979079
0.642	-1.035527
0.643	-0.977096
0.644	-0.845754
0.645	-0.692457
0.646	-0.560136
0.647	-0.476612
0.648	-0.450105
0.649	-0.467755
0.65	-0.501895
0.651	-0.522744
0.652	-0.510189
0.653	-0.459504
0.654	-0.381096
0.655	-0.295273
0.656	-0.230383
0.657	-0.225121
0.658	-0.311333
0.659	-0.476984
0.66	-0.657992
0.661	-0.781128
0.662	-0.811318
0.663	-0.758014
0.664	-0.651144
0.665	-0.522376
0.666	-0.403694
0.667	-0.325436
0.668	-0.303094
0.669	-0.325892
0.67	-0.362085
0.671	-0.379775
0.672	-0.366987
0.673	-0.33509
0.674	-0.301073
0.675	-0.25677
0.676	-0.150729
0.677	0.085489
0.678	0.475537
0.679	0.962065
0.68	1.430767
0.681	1.764329
0.682	1.888644
0.683	1.795514
0.684	1.536543
0.685	1.194822
0.686	0.851196
0.687	0.560185
0.688	0.342423
0.689	0.193046
0.69	0.096867
0.691	0.038522
0.692	0.00348
0.693	-0.023161
0.694	-0.049037
0.695	-0.062037
0.696	-0.031454
0.697	0.068357
0.698	0.230799
0.699	0.417601
0.7	0.583026
0.701	0.690419
0.702	0.716938
0.703	0.660125
0.704	0.543567
0.705	0.412689
0.706	0.319333
0.707	0.299064
0.708	0.352878
0.709	0.447564
0.71	0.535618
0.711	0.580502
0.712	0.569767
0.713	0.510716
0.714	0.419547
0.715	0.31204
0.716	0.190979
0.717	0.036334
0.718	-0.176479
0.719	-0.4353
0.72	-0.680038
0.721	-0.842436
0.722	-0.889512
0.723	-0.831465
0.724	-0.705309
0.725	-0.557759
0.726	-0.433567
0.727	-0.364779
0.728	-0.360311
0.729	-0.402655
0.73	-0.456907
0.731	-0.488006
0.732	-0.475118
0.733	-0.416112
0.734	-0.325972
0.735	-0.234664
0.736	-0.185656
0.737	-0.229906
0.738	-0.398667
0.739	-0.662885
0.74	-0.932259
0.741	-1.111009
0.742	-1.152528
0.743	-1.06763
0.744	-0.900925
0.745	-0.70557
0.746	-0.526805
0.747	-0.393126
0.748	-0.314938
0.749	-0.287203
0.75	-0.292398
0.751	-0.306807
0.752	-0.311276
0.753	-0.298311
0.754	-0.267582
0.755	-0.212033
0.756	-0.107474
0.757	0.074967
0.758	0.338839
0.759	0.649315
0.76	0.945138
0.761	1.159122
0.762	1.243768
0.763	1.192491
0.764	1.038734
0.765	0.83403
0.766	0.621858
0.767	0.424708
0.768	0.250734
0.769	0.10712
0.77	0.003641
0.771	-0.053703
0.772	-0.070523
0.773	-0.065526
0.774	-0.058039
0.775	-0.043096
0.776	0.02195
0.777	0.190384
0.778	0.476165
0.779	0.831599
0.78	1.167475
0.781	1.39441
0.782	1.460969
0.783	1.369978
0.784	1.169726
0.785	0.931402
0.786	0.723201
0.787	0.587279
0.788	0.528904
0.789	0.524026
0.79	0.538755
0.791	0.546375
0.792	0.532648
0.793	0.491732
0.794	0.421718
0.795	0.326258
0.796	0.210986
0.797	0.068339
0.798	-0.117007
0.799	-0.333862
0.8	-0.533756
0.801	-0.6639
0.802	-0.700517
0.803	-0.652604
0.804	-0.546712
0.805	-0.411278
0.806	-0.269633
0.807	-0.140086
0.808	-0.036252
0.809	0.035728
0.81	0.08009
0.811	0.107862
0.812	0.128082
0.813	0.141824
0.814	0.141767
0.815	0.115693
0.816	0.045001
0.817	-0.100299
0.818	-0.341015
0.819	-0.646689
0.82	-0.932567
0.821	-1.111933
0.822	-1.145689
0.823	-1.049152
0.824	-0.869567
0.825	-0.66191
0.826	-0.47441
0.827	-0.339182
0.828	-0.265902
0.829	-0.242111
0.83	-0.241132
0.831	-0.235776
0.832	-0.21182
0.833	-0.172582
0.834	-0.130374
0.835	-0.093568
0.836	-0.065525
0.837	-0.053858
0.838	-0.068204
0.839	-0.10322
0.84	-0.134876
0.841	-0.140732
0.842	-0.117968
0.843	-0.080296
0.844	-0.043392
0.845	-0.015682
0.846	-0.000173
0.847	-0.000141
0.848	-0.018905
0.849	-0.054406
0.85	-0.097286
0.851	-0.13528
0.852	-0.160468
0.853	-0.173302
0.854	-0.172807
0.855	-0.135147
0.856	-0.00916
0.857	0.249828
0.858	0.63441
0.859	1.07476
0.86	1.469084
0.861	1.724744
0.862	1.790846
0.863	1.674444
0.864	1.432165
0.865	1.142037
0.866	0.872914
0.867	0.664672
0.868	0.525156
0.869	0.442394
0.87	0.399223
0.871	0.378603
0.872	0.362753
0.873	0.335361
0.874	0.289033
0.875	0.231979
0.876	0.182319
0.877	0.147632
0.878	0.116339
0.879	0.077831
0.88	0.037981
0.881	0.007484
0.882	-0.010719
0.883	-0.017092
0.884	-0.006392
0.885	0.033812
0.886	0.116106
0.887	0.242584
0.888	0.396907
0.889	0.546922
0.89	0.65971
0.891	0.71653
0.892	0.714749
0.893	0.661419
0.894	0.567987
0.895	0.443813
0.896	0.28576
0.897	0.074522
0.898	-0.202816
0.899	-0.515875
0.9	-0.791601
0.901	-0.96016
0.902	-0.993278
0.903	-0.906158
0.904	-0.739945
0.905	-0.546649
0.906	-0.378268
0.907	-0.272045
0.908	-0.23644
0.909	-0.250159
0.91	-0.276261
0.911	-0.281175
0.912	-0.248464
0.913	-0.183288
0.914	-0.108207
0.915	-0.056396
0.916	-0.069163
0.917	-0.189857
0.918	-0.433449
0.919	-0.750392
0.92	-1.04014
0.921	-1.211367
0.922	-1.226971
0.923	-1.10469
0.924	-0.893538
0.925	-0.650833
0.926	-0.427602
0.927	-0.259723
0.928	-0.161505
0.929	-0.123924
0.93	-0.121714
0.931	-0.127412
0.932	-0.12486
0.933	-0.113194
0.934	-0.0959
0.935	-0.058286
0.936	0.042677
0.937	0.250267
0.938	0.56586
0.939	0.937555
0.94	1.280606
0.941	1.511142
0.942	1.580346
0.943	1.49086
0.944	1.287674
0.945	1.035156
0.946	0.792843
0.947	0.597097
0.948	0.455377
0.949	0.355257
0.95	0.280259
0.951	0.219696
0.952	0.1682
0.953	0.122661
0.954	0.085636
0.955	0.077323
0.956	0.138085
0.957	0.300118
0.958	0.553486
0.959	0.845384
0.96	1.102726
0.961	1.258618
0.962	1.279717
0.963	1.179859
0.964	1.00993
0.965	0.834101
0.966	0.705602
0.967	0.650444
0.968	0.662556
0.969	0.712212
0.97	0.764387
0.971	0.793067
0.972	0.782615
0.973	0.723362
0.974	0.612074
0.975	0.455761
0.976	0.26597
0.977	0.048073
0.978	-0.188025
0.979	-0.406339
0.98	-0.556842
0.981	-0.612293
0.982	-0.582371
0.983	-0.49773
0.984	-0.388906
0.985	-0.275762
0.986	-0.167392
0.987	-0.067971
0.988	0.016671
0.989	0.079126
0.99	0.117219
0.991	0.137152
0.992	0.147603
0.993	0.153531
0.994	0.158717
0.995	0.172501
0.996	0.205889
0.997	0.25468
0.998	0.297719
0.999	0.32012
1.0	0.323766
1.001	0.313406
1.002	0.28776
1.003	0.245171
1.004	0.192323
1.005	0.147387
1.006	0.132803
1.007	0.159942
1.008	0.218728
1.009	0.283358
1.01	0.329076
1.011	0.345931
1.012	0.339741
1.013	0.321754
1.014	0.298369
1.015	0.26733
1.016	0.212036
1.017	0.098591
1.018	-0.095908
1.019	-0.341966
1.02	-0.565284
1.021	-0.698999
1.022	-0.720661
1.023	-0.651659
1.024	-0.537442
1.025	-0.427187
1.026	-0.359569
1.027	-0.353751
1.028	-0.404126
1.029	-0.482381
1.03	-0.549192
1.031	-0.570495
1.032	-0.52997
1.033	-0.433017
1.034	-0.302957
1.035	-0.172643
1.036	-0.08139
1.037	-0.072991
1.038	-0.167695
1.039	-0.328738
1.04	-0.4811
1.041	-0.565901
1.042	-0.567328
1.043	-0.502449
1.044	-0.402791
1.045	-0.304609
1.046	-0.244235
1.047	-0.246633
1.048	-0.309603
1.049	-0.400321
1.05	-0.471537
1.051	-0.488207
1.052	-0.446105
1.053	-0.367791
1.054	-0.275395
1.055	-0.155181
1.056	0.050537
1.057	0.39775
1.058	0.87857
1.059	1.40629
1.06	1.855343
1.061	2.118477
1.062	2.147792
1.063	1.963831
1.064	1.635696
1.065	1.247469
1.066	0.868676
1.067	0.541053
1.068	0.281422
1.069	0.092499
1.07	-0.027895
1.071	-0.085651
1.072	-0.094734
1.073	-0.076233
1.074	-0.043215
1.075	0.017243
1.076	0.13666
1.077	0.329362
1.078	0.569307
1.079	0.805172
1.08	0.986563
1.081	1.077279
1.082	1.061711
1.083	0.950089
1.084	0.77879
1.085	0.601654
1.086	0.471756
1.087	0.418223
1.088	0.433038
1.089	0.480832
1.09	0.522487
1.091	0.534018
1.092	0.511196
1.093	0.46202
1.094	0.398617
1.095	0.331574
1.096	0.256002
1.097	0.141936
1.098	-0.036228
1.099	-0.255015
1.1	-0.449204
1.101	-0.563197
1.102	-0.58301
1.103	-0.530267
1.104	-0.441848
1.105	-0.354718
1.106	-0.29807
1.107	-0.2877
1.108	-0.32106
1.109	-0.377093
1.11	-0.424761
1.111	-0.437005
1.112	-0.401258
1.113	-0.321085
1.114	-0.21392
1.115	-0.111794
1.116	-0.06424
1.117	-0.128376
1.118	-0.326595
1.119	-0.60509
1.12	-0.857798
1.121	-0.997893
1.122	-1.000929
1.123	-0.896274
1.124	-0.736521
1.125	-0.573646
1.126	-0.447302
1.127	-0.378387
1.128	-0.366565
1.129	-0.391832
1.13	-0.419412
1.131	-0.414362
1.132	-0.363651
1.133	-0.28238
1.134	-0.191695
1.135	-0.088921
1.136	0.057624
1.137	0.277649
1.138	0.564988
1.139	0.875288
1.14	1.14314
1.141	1.304675
1.142	1.325019
1.143	1.213035
1.144	1.010706
1.145	0.767736
1.146	0.519519
1.147	0.282567
1.148	0.067441
1.149	-0.109061
1.15	-0.227722
1.151	-0.279782
1.152	-0.274141
1.153	-0.232103
1.154	-0.168193
1.155	-0.065364
1.156	0.124867
1.157	0.438206
1.158	0.853127
1.159	1.292021
1.16	1.652616
1.161	1.847589
1.162	1.839859
1.163	1.653435
1.164	1.356687
1.165	1.032912
1.166	0.75129
1.167	0.546984
1.168	0.419228
1.169	0.346677
1.17	0.305823
1.171	0.280806
1.172	0.263592
1.173	0.249505
1.174	0.234009
1.175	0.213431
1.176	0.17953
1.177	0.109407
1.178	-0.015815
1.179	-0.17579
1.18	-0.318936
1.181	-0.404678
1.182	-0.424527
1.183	-0.392546
1.184	-0.327536
1.185	-0.241873
1.186	-0.141603
1.187	-0.034175
1.188	0.066684
1.189	0.145751
1.19	0.196121
1.191	0.222529
1.192	0.234773
1.193	0.239101
1.194	0.233594
1.195	0.207462
1.196	0.137495
1.197	-0.010404
1.198	-0.248522
1.199	-0.529829
1.2	-0.767492
1.201	-0.894356
1.202	-0.895911
1.203	-0.801731
1.204	-0.661251
1.205	-0.524419
1.206	-0.430146
1.207	-0.396549
1.208	-0.415785
1.209	-0.459597
1.21	-0.492172
1.211	-0.484945
1.212	-0.428251
1.213	-0.333353
1.214	-0.223042
1.215	-0.119849
1.216	-0.046306
1.217	-0.028514
1.218	-0.077009
1.219	-0.163673
1.22	-0.238028
1.221	-0.266231
1.222	-0.247565
1.223	-0.203655
1.224	-0.159917
1.225	-0.134294
1.226	-0.136888
1.227	-0.172074
1.228	-0.235728
1.229	-0.311907
1.23	-0.377057
1.231	-0.410674
1.232	-0.404534
1.233	-0.362835
1.234	-0.286041
1.235	-0.146866
1.236	0.1054
1.237	0.496983
1.238	0.988348
1.239	1.483801
1.24	1.871901
1.241	2.066945
1.242	2.038906
1.243	1.819672
1.244	1.482804
1.245	1.110431
1.246	0.766812
1.247	0.487239
1.248	0.280941
1.249	0.143531
1.25	0.06706
1.251	0.039529
1.252	0.041744
1.253	0.052891
1.254	0.06555
1.255	0.097303
1.256	0.178284
1.257	0.31654
1.258	0.48349
1.259	0.637227
1.26	0.744362
1.261	0.782344
1.262	0.74234
1.263	0.636637
1.264	0.49957
1.265	0.377699
1.266	0.311708
1.267	0.317785
1.268	0.37993
1.269	0.460535
1.27	0.522807
1.271	0.547286
1.272	0.531858
1.273	0.483872
1.274	0.415092
1.275	0.33396
1.276	0.230963
1.277	0.077715
1.278	-0.138895
1.279	-0.381421
1.28	-0.580347
1.281	-0.685377
1.282	-0.690088
1.283	-0.621418
1.284	-0.520086
1.285	-0.428713
1.286	-0.383949
1.287	-0.40358
1.288	-0.475468
1.289	-0.561896
1.29	-0.618779
1.291	-0.615668
1.292	-0.545682
1.293	-0.424573
1.294	-0.283367
1.295	-0.16241
1.296	-0.110982
1.297	-0.176571
1.298	-0.365538
1.299	-0.614173
1.3	-0.823983
1.301	-0.926837
1.302	-0.912391
1.303	-0.812215
1.304	-0.672606
1.305	-0.53699
1.306	-0.438079
1.307	-0.39287
1.308	-0.398604
1.309	-0.433733
1.31	-0.467551
1.311	-0.474583
1.312	-0.444593
1.313	-0.380775
1.314	-0.285745
1.315	-0.144106
1.316	0.074978
1.317	0.384116
1.318	0.752813
1.319	1.119141
1.32	1.411002
1.321	1.565167
1.322	1.55053
1.323	1.3811
1.324	1.107704
1.325	0.795859
1.326	0.501361
1.327	0.254386
1.328	0.060244
1.329	-0.087138
1.33	-0.192456
1.331	-0.256154
1.332	-0.278715
1.333	-0.261627
1.334	-0.199162
1.335	-0.067322
1.336	0.167163
1.337	0.509055
1.338	0.911326
1.339	1.295374
1.34	1.580163
1.341	1.702568
1.342	1.640765
1.343	1.425993
1.344	1.128247
1.345	0.826842
1.346	0.581511
1.347	0.417183
1.348	0.32725
1.349	0.288314
1.35	0.276351
1.351	0.27538
1.352	0.276025
1.353	0.271172
1.354	0.256365
1.355	0.230205
1.356	0.184342
1.357	0.097529
1.358	-0.040501
1.359	-0.20213
1.36	-0.337989
1.361	-0.414519
1.362	-0.427988
1.363	-0.395475
1.364	-0.342118
1.365	-0.293562
1.366	-0.272101
1.367	-0.289579
1.368	-0.338703
1.369	-0.393746
1.37	-0.423666
1.371	-0.407498
1.372	-0.34238
1.373	-0.243623
1.374	-0.13863
1.375	-0.059717
1.376	-0.044997
1.377	-0.132588
1.378	-0.32502
1.379	-0.562878
1.38	-0.758444
1.381	-0.853011
1.382	-0.839109
1.383	-0.747496
1.384	-0.625085
1.385	-0.517672
1.386	-0.458151
1.387	-0.458007
1.388	-0.503819
1.389	-0.562562
1.39	-0.596236
1.391	-0.579541
1.392	-0.509499
1.393	-0.401261
1.394	-0.27467
1.395	-0.141606
1.396	-0.007635
1.397	0.115901
1.398	0.215331
1.399	0.287955
1.4	0.336526
1.401	0.356096
1.402	0.337955
1.403	0.284232
1.404	0.212347
1.405	0.14268
1.406	0.085096
1.407	0.03916
1.408	0.003425
1.409	-0.018723
1.41	-0.021871
1.411	-0.005737
1.412	0.020467
1.413	0.038667
1.414	0.024703
1.415	-0.048552
1.416	-0.210283
1.417	-0.482085
1.418	-0.843265
1.419	-1.209605
1.42	-1.473219
1.421	-1.565399
1.422	-1.480929
1.423	-1.261297
1.424	-0.965582
1.425	-0.649118
1.426	-0.354909
1.427	-0.112445
1.428	0.062781
1.429	0.169926
1.43	0.220226
1.431	0.228548
1.432	0.203918
1.433	0.150247
1.434	0.082304
1.435	0.045189
1.436	0.106442
1.437	0.310116
1.438	0.635457
1.439	0.999443
1.44	1.29543
1.441	1.443077
1.442	1.422355
1.443	1.27236
1.444	1.062956
1.445	0.860367
1.446	0.703835
1.447	0.602765
1.448	0.548424
1.449	0.526004
1.45	0.519563
1.451	0.510622
1.452	0.476637
1.453	0.398694
1.454	0.2832
1.455	0.178564
1.456	0.153623
1.457	0.246139
1.458	0.433721
1.459	0.650047
1.46	0.82119
1.461	0.897174
1.462	0.868679
1.463	0.765941
1.464	0.644856
1.465	0.566139
1.466	0.571598
1.467	0.66527
1.468	0.812202
1.469	0.958535
1.47	1.056232
1.471	1.076532
1.472	1.011001
1.473	0.865843
1.474	0.657942
1.475	0.408847
1.476	0.127488
1.477	-0.193915
1.478	-0.546155
1.479	-0.874949
1.48	-1.106976
1.481	-1.197263
1.482	-1.146156
1.483	-0.986077
1.484	-0.763448
1.485	-0.527548
1.486	-0.321555
1.487	-0.17179
1.488	-0.080258
1.489	-0.028198
1.49	0.00897
1.491	0.045444
1.492	0.078652
1.493	0.094854
1.494	0.076807
1.495	0.001681
1.496	-0.163811
1.497	-0.445759
1.498	-0.820641
1.499	-1.199008
1.5	-1.471272
1.501	-1.570548
1.502	-1.494426
1.503	-1.285506
1.504	-1.002542
1.505	-0.703033
1.506	-0.434596
1.507	-0.226304
1.508	-0.084012
1.509	0.003659
1.51	0.053972
1.511	0.080499
1.512	0.086963
1.513	0.070515
1.514	0.034786
1.515	-0.003478
1.516	-0.025035
1.517	-0.023525
1.518	-0.004363
1.519	0.027739
1.52	0.068685
1.521	0.107859
1.522	0.132956
1.523	0.140619
1.524	0.139655
1.525	0.144451
1.526	0.163749
1.527	0.194085
1.528	0.223214
1.529	0.238937
1.53	0.234605
1.531	0.208621
1.532	0.162088
1.533	0.100747
1.534	0.044565
1.535	0.036804
1.536	0.131218
1.537	0.352847
1.538	0.668613
1.539	0.997087
1.54	1.244677
1.541	1.346274
1.542	1.291998
1.543	1.125686
1.544	0.919517
1.545	0.742457
1.546	0.636977
1.547	0.609608
1.548	0.63704
1.549	0.683795
1.55	0.718704
1.551	0.720527
1.552	0.676828
1.553	0.584092
1.554	0.448387
1.555	0.282278
1.556	0.094627
1.557	-0.115279
1.558	-0.340132
1.559	-0.546618
1.56	-0.691433
1.561	-0.74973
1.562	-0.721499
1.563	-0.620433
1.564	-0.4649
1.565	-0.275649
1.566	-0.074911
1.567	0.11501
1.568	0.27443
1.569	0.390693
1.57	0.461224
1.571	0.490511
1.572	0.482488
1.573	0.436097
1.574	0.345481
1.575	0.199578
1.576	-0.019365
1.577	-0.323257
1.578	-0.68612
1.579	-1.032231
1.58	-1.273785
1.581	-1.359811
1.582	-1.290927
1.583	-1.104711
1.584	-0.856631
1.585	-0.605747
1.586	-0.400839
1.587	-0.266158
1.588	-0.195899
1.589	-0.163027
1.59	-0.136389
1.591	-0.097036
1.592	-0.046646
1.593	-0.004544
1.594	0.004439
1.595	-0.040017
1.596	-0.154311
1.597	-0.345154
1.598	-0.586778
1.599	-0.815316
1.6	-0.962993
1.601	-0.995908
1.602	-0.920449
1.603	-0.768176
1.604	-0.578889
1.605	-0.389477
1.606	-0.229695
1.607	-0.119052
1.608	-0.061034
1.609	-0.041566
1.61	-0.038833
1.611	-0.038555
1.612	-0.041215
1.613	-0.053786
1.614	-0.066067
1.615	-0.03018
1.616	0.119777
1.617	0.411316
1.618	0.800125
1.619	1.189482
1.62	1.475907
1.621	1.592125
1.622	1.529231
1.623	1.3308
1.624	1.069088
1.625	0.817559
1.626	0.628067
1.627	0.516938
1.628	0.466604
1.629	0.444455
1.63	0.423214
1.631	0.387104
1.632	0.328309
1.633	0.247829
1.634	0.16357
1.635	0.110485
1.636	0.117913
1.637	0.182716
1.638	0.273405
1.639	0.356878
1.64	0.411652
1.641	0.425403
1.642	0.395346
1.643	0.334249
1.644	0.274006
1.645	0.258202
1.646	0.320081
1.647	0.457699
1.648	0.628982
1.649	0.774235
1.65	0.84803
1.651	0.836475
1.652	0.751374
1.653	0.614562
1.654	0.446538
1.655	0.25382
1.656	0.019626
1.657	-0.274827
1.658	-0.608832
1.659	-0.914845
1.66	-1.118822
1.661	-1.181781
1.662	-1.108913
1.663	-0.936122
1.664	-0.714611
1.665	-0.500711
1.666	-0.343097
1.667	-0.263217
1.668	-0.244819
1.669	-0.247233
1.67	-0.232927
1.671	-0.187523
1.672	-0.122294
1.673	-0.06441
1.674	-0.044651
1.675	-0.094276
1.676	-0.247007
1.677	-0.519132
1.678	-0.871912
1.679	-1.209971
1.68	-1.433456
1.681	-1.490743
1.682	-1.388496
1.683	-1.170461
1.684	-0.894121
1.685	-0.617331
1.686	-0.387824
1.687	-0.230711
1.688	-0.142581
1.689	-0.099502
1.69	-0.074352
1.691	-0.052991
1.692	-0.038928
1.693	-0.041062
1.694	-0.052346
1.695	-0.038556
1.696	0.044658
1.697	0.214933
1.698	0.445729
1.699	0.681794
1.7	0.863509
1.701	0.947891
1.702	0.924526
1.703	0.81757
1.704	0.67117
1.705	0.528215
1.706	0.414641
1.707	0.33537
1.708	0.281361
1.709	0.2407
1.71	0.205213
1.711	0.169192
1.712	0.126145
1.713	0.075155
1.714	0.035427
1.715	0.050352
1.716	0.163737
1.717	0.381194
1.718	0.657403
1.719	0.920096
1.72	1.101523
1.721	1.160222
1.722	1.093792
1.723	0.938866
1.724	0.757523
1.725	0.615895
1.726	0.558559
1.727	0.588124
1.728	0.666212
1.729	0.738311
1.73	0.763793
1.731	0.729736
1.732	0.645077
1.733	0.527101
1.734	0.390458
1.735	0.236885
1.736	0.047658
1.737	-0.199172
1.738	-0.488769
1.739	-0.758241
1.74	-0.936313
1.741	-0.987459
1.742	-0.92043
1.743	-0.77038
1.744	-0.576975
1.745	-0.370093
1.746	-0.168881
1.747	0.009801
1.748	0.148255
1.749	0.236841
1.75	0.281937
1.751	0.299251
1.752	0.298105
1.753	0.271949
1.754	0.202103
1.755	0.065556
1.756	-0.161373
1.757	-0.48589
1.758	-0.866416
1.759	-1.212457
1.76	-1.433214
1.761	-1.483791
1.762	-1.372496
1.763	-1.144378
1.764	-0.863161
1.765	-0.594377
1.766	-0.387278
1.767	-0.261002
1.768	-0.202462
1.769	-0.178007
1.77	-0.153914
1.771	-0.114949
1.772	-0.069516
1.773	-0.038909
1.774	-0.039847
1.775	-0.074045
1.776	-0.133939
1.777	-0.211095
1.778	-0.290287
1.779	-0.347353
1.78	-0.364013
1.781	-0.338264
1.782	-0.279983
1.783	-0.202743
1.784	-0.119535
1.785	-0.043454
1.786	0.011484
1.787	0.035727
1.788	0.031479
1.789	0.012014
1.79	-0.007318
1.791	-0.019706
1.792	-0.031487
1.793	-0.051617
1.794	-0.066429
1.795	-0.026221
1.796	0.126453
1.797	0.40615
1.798	0.762396
1.799	1.102581
1.8	1.337139
1.801	1.416641
1.802	1.343703
1.803	1.162914
1.804	0.940806
1.805	0.743009
1.806	0.612018
1.807	0.55396
1.808	0.543998
1.809	0.546695
1.81	0.534315
1.811	0.492702
1.812	0.418573
1.813	0.317934
1.814	0.212025
1.815	0.134607
1.816	0.105816
1.817	0.114652
1.818	0.136826
1.819	0.15751
1.82	0.171634
1.821	0.175643
1.822	0.167234
1.823	0.152546
1.824	0.151992
1.825	0.194316
1.826	0.296635
1.827	0.444554
1.828	0.595902
1.829	0.711086
1.83	0.775602
1.831	0.791842
1.832	0.763951
1.833	0.700911
1.834	0.633206
1.835	0.616071
1.836	0.697116
1.837	0.87704
1.838	1.107667
1.839	1.318057
1.84	1.441099
1.841	1.436077
1.842	1.303646
1.843	1.084771
1.844	0.842801
1.845	0.637252
1.846	0.502347
1.847	0.439454
1.848	0.425589
1.849	0.431791
1.85	0.436951
1.851	0.429663
1.852	0.403796
1.853	0.355062
1.854	0.282127
1.855	0.1835
1.856	0.04617
1.857	-0.145029
1.858	-0.37297
1.859	-0.581636
1.86	-0.71373
1.861	-0.745095
1.862	-0.687708
1.863	-0.575349
1.864	-0.450807
1.865	-0.356795
1.866	-0.323051
1.867	-0.352668
1.868	-0.419654
1.869	-0.481674
1.87	-0.501236
1.871	-0.463199
1.872	-0.378912
1.873	-0.27687
1.874	-0.19127
1.875	-0.162163
1.876	-0.235594
1.877	-0.434087
1.878	-0.716511
1.879	-0.987414
1.88	-1.155856
1.881	-1.182822
1.882	-1.085202
1.883	-0.91184
1.884	-0.718152
1.885	-0.551992
1.886	-0.445226
1.887	-0.405073
1.888	-0.412345
1.889	-0.433317
1.89	-0.437384
1.891	-0.409388
1.892	-0.353354
1.893	-0.284751
1.894	-0.215043
1.895	-0.148114
1.896	-0.091885
1.897	-0.057804
1.898	-0.044178
1.899	-0.034481
1.9	-0.015964
1.901	0.008358
1.902	0.026083
1.903	0.027822
1.904	0.012875
1.905	-0.014096
1.906	-0.050066
1.907	-0.095421
1.908	-0.148241
1.909	-0.200176
1.91	-0.240663
1.911	-0.264123
1.912	-0.270845
1.913	-0.256988
1.914	-0.198467
1.915	-0.049365
1.916	0.226255
1.917	0.612995
1.918	1.03946
1.919	1.410247
1.92	1.641931
1.921	1.68931
1.922	1.558273
1.923	1.30094
1.924	0.995886
1.925	0.719419
1.926	0.51765
1.927	0.39679
1.928	0.337771
1.929	0.316753
1.93	0.313914
1.931	0.312021
1.932	0.295966
1.933	0.259663
1.934	0.212299
1.935	0.170347
1.936	0.137606
1.937	0.10112
1.938	0.053287
1.939	0.003701
1.94	-0.035339
1.941	-0.060794
1.942	-0.074336
1.943	-0.074553
1.944	-0.057842
1.945	-0.025082
1.946	0.016013
1.947	0.055302
1.948	0.086014
1.949	0.106975
1.95	0.121156
1.951	0.131706
1.952	0.137508
1.953	0.132077
1.954	0.103578
1.955	0.030035
1.956	-0.120633
1.957	-0.36262
1.958	-0.655816
1.959	-0.916836
1.96	-1.072087
1.961	-1.094554
1.962	-1.001885
1.963	-0.836627
1.964	-0.650401
1.965	-0.49299
1.966	-0.39859
1.967	-0.372826
1.968	-0.392433
1.969	-0.420133
1.97	-0.423789
1.971	-0.388923
1.972	-0.321368
1.973	-0.24248
1.974	-0.180972
1.975	-0.168799
1.976	-0.238554
1.977	-0.400375
1.978	-0.613132
1.979	-0.799969
1.98	-0.898853
1.981	-0.892207
1.982	-0.799571
1.983	-0.657502
1.984	-0.505099
1.985	-0.3761
1.986	-0.293886
1.987	-0.266348
1.988	-0.28251
1.989	-0.317165
1.99	-0.344201
1.991	-0.349771
1.992	-0.334333
1.993	-0.300037
1.994	-0.228515
1.995	-0.072349
1.996	0.212298
1.997	0.617454
1.998	1.072828
1.999	1.474274
2.0	1.724881
2.001	1.773268
2.002	1.630101
2.003	1.355534
2.004	1.030957
2.005	0.729314
2.006	0.494296
2.007	0.33427
2.008	0.231371
2.009	0.160463
2.01	0.104671
2.011	0.057547
2.012	0.017946
2.013	-0.009704
2.014	-0.009256
2.015	0.04214
2.016	0.151075
2.017	0.296878
2.018	0.446923
2.019	0.56854
2.02	0.631889
2.021	0.621378
2.022	0.546843
2.023	0.441649
2.024	0.349971
2.025	0.308585
2.026	0.331008
2.027	0.403421
2.028	0.494639
2.029	0.572055
2.03	0.61336
2.031	0.609127
2.032	0.557693
2.033	0.461096
2.034	0.326288
2.035	0.157397
2.036	-0.057274
2.037	-0.325726
2.038	-0.614131
2.039	-0.853634
2.04	-0.986413
2.041	-0.994683
2.042	-0.898277
2.043	-0.739792
2.044	-0.571114
2.045	-0.442014
2.046	-0.384959
2.047	-0.399566
2.048	-0.451941
2.049	-0.494439
2.05	-0.492022
2.051	-0.437015
2.052	-0.347118
2.053	-0.254662
2.054	-0.195982
2.055	-0.210036
2.056	-0.336604
2.057	-0.584593
2.058	-0.895766
2.059	-1.166565
2.06	-1.312321
2.061	-1.306482
2.062	-1.174715
2.063	-0.968158
2.064	-0.741519
2.065	-0.542367
2.066	-0.402518
2.067	-0.32948
2.068	-0.306561
2.069	-0.304366
2.07	-0.297487
2.071	-0.277135
2.072	-0.250678
2.073	-0.22494
2.074	-0.184183
2.075	-0.087993
2.076	0.097507
2.077	0.364773
2.078	0.66409
2.079	0.928144
2.08	1.09675
2.081	1.136409
2.082	1.050923
2.083	0.876982
2.084	0.666608
2.085	0.465799
2.086	0.30036
2.087	0.174798
2.088	0.081896
2.089	0.01319
2.09	-0.037234
2.091	-0.075029
2.092	-0.106196
2.093	-0.12613
2.094	-0.104502
2.095	0.007077
2.096	0.236068
2.097	0.556621
2.098	0.899013
2.099	1.182538
2.1	1.343037
2.101	1.350883
2.102	1.219333
2.103	1.000013
2.104	0.766165
2.105	0.586887
2.106	0.498284
2.107	0.489382
2.108	0.519003
2.109	0.548201
2.11	0.556179
2.111	0.533707
2.112	0.474899
2.113	0.379036
2.114	0.253321
2.115	0.102703
2.116	-0.083505
2.117	-0.313631
2.118	-0.558979
2.119	-0.761221
2.12	-0.87416
2.121	-0.885534
2.122	-0.808892
2.123	-0.669389
2.124	-0.496979
2.125	-0.323076
2.126	-0.174193
2.127	-0.064107
2.128	0.008686
2.129	0.055653
2.13	0.088567
2.131	0.111779
2.132	0.121542
2.133	0.108361
2.134	0.05635
2.135	-0.059935
2.136	-0.270177
2.137	-0.576254
2.138	-0.919542
2.139	-1.203164
2.14	-1.351864
2.141	-1.344789
2.142	-1.206949
2.143	-0.987815
2.144	-0.746253
2.145	-0.537738
2.146	-0.39751
2.147	-0.329105
2.148	-0.308942
2.149	-0.302849
2.15	-0.283852
2.151	-0.243638
2.152	-0.192439
2.153	-0.148078
2.154	-0.123623
2.155	-0.125313
2.156	-0.159248
2.157	-0.225505
2.158	-0.302818
2.159	-0.358048
2.16	-0.37243
2.161	-0.348371
2.162	-0.298283
2.163	-0.235172
2.164	-0.171058
2.165	-0.119441
2.166	-0.093872
2.167	-0.099625
2.168	-0.127775
2.169	-0.160564
2.17	-0.182735
2.171	-0.189517
2.172	-0.186252
2.173	-0.174584
2.174	-0.129671
2.175	0.000926
2.176	0.255792
2.177	0.617341
2.178	1.01275
2.179	1.344593
2.18	1.530316
2.181	1.535855
2.182	1.383841
2.183	1.13694
2.184	0.871426
2.185	0.650968
2.186	0.506798
2.187	0.433048
2.188	0.400724
2.189	0.379182
2.19	0.349621
2.191	0.306047
2.192	0.24998
2.193	0.187863
2.194	0.134408
2.195	0.105362
2.196	0.095369
2.197	0.081046
2.198	0.052475
2.199	0.020479
2.2	-0.003692
2.201	-0.018835
2.202	-0.027265
2.203	-0.023401
2.204	0.0116
2.205	0.100331
2.206	0.248038
2.207	0.42802
2.208	0.59056
2.209	0.691016
2.21	0.711962
2.211	0.663248
2.212	0.567461
2.213	0.444604
2.214	0.301897
2.215	0.124542
2.216	-0.121496
2.217	-0.449387
2.218	-0.807839
2.219	-1.101364
2.22	-1.254707
2.221	-1.248878
2.222	-1.112618
2.223	-0.898999
2.224	-0.668853
2.225	-0.478605
2.226	-0.362663
2.227	-0.319375
2.228	-0.316625
2.229	-0.314162
2.23	-0.286064
2.231	-0.231336
2.232	-0.170384
2.233	-0.130575
2.234	-0.133846
2.235	-0.199837
2.236	-0.347943
2.237	-0.572857
2.238	-0.821422
2.239	-1.015845
2.24	-1.101238
2.241	-1.067654
2.242	-0.940276
2.243	-0.759355
2.244	-0.566578
2.245	-0.398759
2.246	-0.280739
2.247	-0.216932
2.248	-0.191248
2.249	-0.180344
2.25	-0.169423
2.251	-0.159034
2.252	-0.160563
2.253	-0.177498
2.254	-0.179828
2.255	-0.101244
2.256	0.123402
2.257	0.507342
2.258	0.987048
2.259	1.441182
2.26	1.746334
2.261	1.832377
2.262	1.700456
2.263	1.403033
2.264	1.008872
2.265	0.577303
2.266	0.153971
2.267	-0.221813
2.268	-0.515766
2.269	-0.70515
2.27	-0.784025
2.271	-0.764046
2.272	-0.671239
2.273	-0.534532
2.274	-0.368964
2.275	-0.175965
2.276	0.035111
2.277	0.240743
2.278	0.418893
2.279	0.553562
2.28	0.629652
2.281	0.636213
2.282	0.573271
2.283	0.453425
2.284	0.297
2.285	0.124948
2.286	-0.046205
2.287	-0.204783
2.288	-0.339529
2.289	-0.43714
2.29	-0.487368
2.291	-0.489542
2.292	-0.450287
2.293	-0.369266
2.294	-0.222635
2.295	0.02939
2.296	0.400623
2.297	0.846433
2.298	1.278805
2.299	1.604965
2.3	1.758674
2.301	1.718615
2.302	1.511264
2.303	1.19915
2.304	0.860814
2.305	0.567257
2.306	0.359457
2.307	0.236917
2.308	0.168631
2.309	0.120346
2.31	0.074864
2.311	0.032524
2.312	0.001931
2.313	-0.005349
2.314	0.019981
2.315	0.070431
2.316	0.113299
2.317	0.11502
2.318	0.075675
2.319	0.02288
2.32	-0.02158
2.321	-0.05401
2.322	-0.077405
2.323	-0.089936
2.324	-0.084439
2.325	-0.055982
2.326	-0.008137
2.327	0.048213
2.328	0.101252
2.329	0.143132
2.33	0.171157
2.331	0.185788
2.332	0.186812
2.333	0.171167
2.334	0.129251
2.335	0.036766
2.336	-0.138684
2.337	-0.39975
2.338	-0.690379
2.339	-0.924653
2.34	-1.042562
2.341	-1.034623
2.342	-0.930532
2.343	-0.778391
2.344	-0.630259
2.345	-0.530121
2.346	-0.499143
2.347	-0.526235
2.348	-0.574571
2.349	-0.60205
2.35	-0.581496
2.351	-0.50928
2.352	-0.401945
2.353	-0.287717
2.354	-0.199961
2.355	-0.175508
2.356	-0.246844
2.357	-0.412417
2.358	-0.615934
2.359	-0.777877
2.36	-0.847735
2.361	-0.822015
2.362	-0.728315
2.363	-0.604746
2.364	-0.488973
2.365	-0.412114
2.366	-0.391019
2.367	-0.420794
2.368	-0.475571
2.369	-0.521129
2.37	-0.532454
2.371	-0.503995
2.372	-0.443312
2.373	-0.350657
2.374	-0.199222
2.375	0.058105
2.376	0.444283
2.377	0.91922
2.378	1.389939
2.379	1.750097
2.38	1.918835
2.381	1.86978
2.382	1.636826
2.383	1.294254
2.384	0.926016
2.385	0.597199
2.386	0.339108
2.387	0.153083
2.388	0.025013
2.389	-0.06025
2.39	-0.111939
2.391	-0.135173
2.392	-0.133245
2.393	-0.102598
2.394	-0.027538
2.395	0.107152
2.396	0.29105
2.397	0.486851
2.398	0.655098
2.399	0.766715
2.4	0.800992
2.401	0.750292
2.402	0.628166
2.403	0.471301
2.404	0.331881
2.405	0.257049
2.406	0.263053
2.407	0.325361
2.408	0.39614
2.409	0.434395
2.41	0.425752
2.411	0.381832
2.412	0.323615
2.413	0.26294
2.414	0.193202
2.415	0.088453
2.416	-0.082263
2.417	-0.31898
2.418	-0.570993
2.419	-0.767679
2.42	-0.863611
2.421	-0.853213
2.422	-0.761224
2.423	-0.630499
2.424	-0.511759
2.425	-0.449037
2.426	-0.460469
2.427	-0.527145
2.428	-0.602576
2.429	-0.638138
2.43	-0.607134
2.431	-0.513752
2.432	-0.386266
2.433	-0.264479
2.434	-0.190788
2.435	-0.207474
2.436	-0.344918
2.437	-0.588563
2.438	-0.863884
2.439	-1.076021
2.44	-1.165026
2.441	-1.125598
2.442	-0.992579
2.443	-0.817696
2.444	-0.653286
2.445	-0.541244
2.446	-0.500004
2.447	-0.516562
2.448	-0.554715
2.449	-0.574834
2.45	-0.55317
2.451	-0.491184
2.452	-0.407496
2.453	-0.313876
2.454	-0.193063
2.455	-0.005368
2.456	0.273375
2.457	0.619059
2.458	0.96352
2.459	1.226661
2.46	1.350005
2.461	1.316081
2.462	1.148875
2.463	0.898452
2.464	0.619006
2.465	0.351527
2.466	0.118748
2.467	-0.069222
2.468	-0.206943
2.469	-0.291006
2.47	-0.323633
2.471	-0.316387
2.472	-0.284819
2.473	-0.229105
2.474	-0.118388
2.475	0.091175
2.476	0.411436
2.477	0.796762
2.478	1.162172
2.479	1.422185
2.48	1.52185
2.481	1.450928
2.482	1.242727
2.483	0.9614
2.484	0.681875
2.485	0.466045
2.486	0.34062
2.487	0.291117
2.488	0.280366
2.489	0.274574
2.49	0.256914
2.491	0.226231
2.492	0.189007
2.493	0.15272
2.494	0.117955
2.495	0.065683
2.496	-0.039072
2.497	-0.209131
2.498	-0.405016
2.499	-0.561249
2.5	-0.636606
2.501	-0.632194
2.502	-0.575248
2.503	-0.496377
2.504	-0.417223
2.505	-0.349345
2.506	-0.298685
2.507	-0.268379
2.508	-0.256525
2.509	-0.253613
2.51	-0.245609
2.511	-0.221312
2.512	-0.177648
2.513	-0.125078
2.514	-0.095805
2.515	-0.14032
2.516	-0.297302
2.517	-0.55241
2.518	-0.830854
2.519	-1.041858
2.52	-1.131237
2.521	-1.096582
2.522	-0.970886
2.523	-0.803199
2.524	-0.647264
2.525	-0.548549
2.526	-0.524839
2.527	-0.556218
2.528	-0.598344
2.529	-0.608485
2.53	-0.565862
2.531	-0.477675
2.532	-0.368844
2.533	-0.262513
2.534	-0.168722
2.535	-0.090578
2.536	-0.033316
2.537	0.001482
2.538	0.023327
2.539	0.042433
2.54	0.057264
2.541	0.05918
2.542	0.042999
2.543	0.008555
2.544	-0.045121
2.545	-0.123105
2.546	-0.22771
2.547	-0.346552
2.548	-0.451515
2.549	-0.513846
2.55	-0.521091
2.551	-0.480998
2.552	-0.409836
2.553	-0.309526
2.554	-0.149206
2.555	0.119137
2.556	0.511182
2.557	0.978773
2.558	1.425501
2.559	1.746088
2.56	1.867754
2.561	1.777571
2.562	1.520781
2.563	1.175981
2.564	0.824301
2.565	0.524553
2.566	0.301277
2.567	0.14992
2.568	0.053786
2.569	-0.002182
2.57	-0.028598
2.571	-0.033954
2.572	-0.024112
2.573	0.002203
2.574	0.055255
2.575	0.141539
2.576	0.246506
2.577	0.342741
2.578	0.411837
2.579	0.445779
2.58	0.437978
2.581	0.385677
2.582	0.298061
2.583	0.199229
2.584	0.122198
2.585	0.093527
2.586	0.117025
2.587	0.171066
2.588	0.223587
2.589	0.252736
2.59	0.255994
2.591	0.243132
2.592	0.223713
2.593	0.19856
2.594	0.154221
2.595	0.059703
2.596	-0.11688
2.597	-0.367779
2.598	-0.629293
2.599	-0.821034
2.6	-0.897528
2.601	-0.864119
2.602	-0.761231
2.603	-0.641365
2.604	-0.551708
2.605	-0.522512
2.606	-0.55794
2.607	-0.63464
2.608	-0.712819
2.609	-0.752821
2.61	-0.729337
2.611	-0.639538
2.612	-0.502717
2.613	-0.352472
2.614	-0.230526
2.615	-0.185041
2.616	-0.251875
2.617	-0.417217
2.618	-0.610444
2.619	-0.749548
2.62	-0.791546
2.621	-0.744347
2.622	-0.647423
2.623	-0.54626
2.624	-0.475569
2.625	-0.453873
2.626	-0.483327
2.627	-0.549606
2.628	-0.62445
2.629	-0.67573
2.63	-0.68114
2.631	-0.635617
2.632	-0.545954
2.633	-0.411046
2.634	-0.202774
2.635	0.122524
2.636	0.578482
2.637	1.111415
2.638	1.610402
2.639	1.956804
2.64	2.076657
2.641	1.965216
2.642	1.6764
2.643	1.290475
2.644	0.881218
2.645	0.499875
2.646	0.175798
2.647	-0.076134
2.648	-0.247724
2.649	-0.336411
2.65	-0.351918
2.651	-0.318349
2.652	-0.260276
2.653	-0.178567
2.654	-0.04087
2.655	0.192472
2.656	0.52379
2.657	0.899588
2.658	1.234706
2.659	1.451197
2.66	1.504902
2.661	1.395935
2.662	1.165083
2.663	0.878321
2.664	0.605282
2.665	0.397343
2.666	0.272678
2.667	0.217299
2.668	0.201541
2.669	0.199611
2.67	0.198539
2.671	0.194055
2.672	0.185358
2.673	0.174254
2.674	0.156282
2.675	0.107115
2.676	-0.004736
2.677	-0.178668
2.678	-0.368276
2.679	-0.516517
2.68	-0.594614
2.681	-0.603626
2.682	-0.551554
2.683	-0.4387
2.684	-0.262184
2.685	-0.02931
2.686	0.233784
2.687	0.486407
2.688	0.68782
2.689	0.810608
2.69	0.844084
2.691	0.788856
2.692	0.65396
2.693	0.46254
2.694	0.249564
2.695	0.0407
2.696	-0.159094
2.697	-0.346553
2.698	-0.502119
2.699	-0.600042
2.7	-0.627317
2.701	-0.587848
2.702	-0.493905
2.703	-0.356937
2.704	-0.186181
2.705	0.005236
2.706	0.195961
2.707	0.361013
2.708	0.481386
2.709	0.548652
2.71	0.562374
2.711	0.525129
2.712	0.438975
2.713	0.305039
2.714	0.117839
2.715	-0.143066
2.716	-0.492995
2.717	-0.897696
2.718	-1.266285
2.719	-1.502512
2.72	-1.558538
2.721	-1.4459
2.722	-1.213734
2.723	-0.923052
2.724	-0.630892
2.725	-0.380724
2.726	-0.195414
2.727	-0.075881
2.728	-0.006802
2.729	0.032611
2.73	0.057127
2.731	0.069419
2.732	0.06199
2.733	0.021598
2.734	-0.071711
2.735	-0.245129
2.736	-0.512599
2.737	-0.839008
2.738	-1.138932
2.739	-1.326549
2.74	-1.362476
2.741	-1.2567
2.742	-1.045931
2.743	-0.777449
2.744	-0.504185
2.745	-0.275355
2.746	-0.118809
2.747	-0.030656
2.748	0.015418
2.749	0.046023
2.75	0.069358
2.751	0.072742
2.752	0.043039
2.753	-0.002453
2.754	-0.004562
2.755	0.107859
2.756	0.362304
2.757	0.712528
2.758	1.06091
2.759	1.307544
2.76	1.392656
2.761	1.316435
2.762	1.130382
2.763	0.908033
2.764	0.713234
2.765	0.579719
2.766	0.508615
2.767	0.480935
2.768	0.472642
2.769	0.463284
2.77	0.437027
2.771	0.381315
2.772	0.292652
2.773	0.188799
2.774	0.107976
2.775	0.082479
2.776	0.113206
2.777	0.175764
2.778	0.241097
2.779	0.284406
2.78	0.289702
2.781	0.258343
2.782	0.21256
2.783	0.189334
2.784	0.22678
2.785	0.344318
2.786	0.525813
2.787	0.722335
2.788	0.876969
2.789	0.951214
2.79	0.934499
2.791	0.838593
2.792	0.684915
2.793	0.490996
2.794	0.260538
2.795	-0.019354
2.796	-0.358428
2.797	-0.726185
2.798	-1.047519
2.799	-1.247296
2.8	-1.292629
2.801	-1.197146
2.802	-1.002929
2.803	-0.763361
2.804	-0.53005
2.805	-0.340707
2.806	-0.212163
2.807	-0.140975
2.808	-0.108732
2.809	-0.09139
2.81	-0.071378
2.811	-0.045457
2.812	-0.02502
2.813	-0.034454
2.814	-0.110652
2.815	-0.295647
2.816	-0.606008
2.817	-0.992803
2.818	-1.348017
2.819	-1.566459
2.82	-1.6003
2.821	-1.466134
2.822	-1.219848
2.823	-0.927172
2.824	-0.64488
2.825	-0.413375
2.826	-0.252676
2.827	-0.158091
2.828	-0.104146
2.829	-0.06212
2.83	-0.020226
2.831	0.010059
2.832	0.009412
2.833	-0.019509
2.834	-0.03527
2.835	0.019236
2.836	0.172128
2.837	0.399698
2.838	0.637494
2.839	0.813153
2.84	0.882074
2.841	0.844007
2.842	0.73358
2.843	0.596635
2.844	0.46802
2.845	0.361642
2.846	0.276711
2.847	0.210925
2.848	0.165986
2.849	0.142104
2.85	0.129938
2.851	0.110319
2.852	0.068388
2.853	0.019871
2.854	0.020348
2.855	0.128396
2.856	0.354889
2.857	0.650112
2.858	0.929191
2.859	1.111694
2.86	1.155617
2.861	1.06969
2.862	0.903078
2.863	0.72331
2.864	0.591405
2.865	0.540566
2.866	0.565788
2.867	0.631742
2.868	0.695637
2.869	0.726429
2.87	0.708917
2.871	0.639143
2.872	0.52049
2.873	0.363509
2.874	0.17855
2.875	-0.039653
2.876	-0.301881
2.877	-0.587091
2.878	-0.835274
2.879	-0.986649
2.88	-1.017352
2.881	-0.940937
2.882	-0.789234
2.883	-0.595575
2.884	-0.389188
2.885	-0.19499
2.886	-0.032477
2.887	0.087519
2.888	0.165133
2.889	0.20823
2.89	0.224427
2.891	0.21512
2.892	0.177281
2.893	0.105312
2.894	-0.018644
2.895	-0.228145
2.896	-0.539425
2.897	-0.907243
2.898	-1.233344
2.899	-1.42653
2.9	-1.450462
2.901	-1.325892
2.902	-1.104828
2.903	-0.844942
2.904	-0.596367
2.905	-0.394986
2.906	-0.25614
2.907	-0.173753
2.908	-0.129338
2.909	-0.103837
2.91	-0.085532
2.911	-0.073616
2.912	-0.073364
2.913	-0.085951
2.914	-0.109615
2.915	-0.150377
2.916	-0.215913
2.917	-0.294488
2.918	-0.355264
2.919	-0.37414
2.92	-0.350374
2.921	-0.298843
2.922	-0.234654
2.923	-0.166617
2.924	-0.102306
2.925	-0.055139
2.926	-0.037612
2.927	-0.045521
2.928	-0.058228
2.929	-0.058393
2.93	-0.048243
2.931	-0.045506
2.932	-0.061191
2.933	-0.073208
2.934	-0.02117
2.935	0.155395
2.936	0.462814
2.937	0.838878
2.938	1.183578
2.939	1.403564
2.94	1.450326
2.941	1.336401
2.942	1.121993
2.943	0.883607
2.944	0.683518
2.945	0.552751
2.946	0.48988
2.947	0.471984
2.948	0.471069
2.949	0.465288
2.95	0.439553
2.951	0.3842
2.952	0.299455
2.953	0.199133
2.954	0.102799
2.955	0.017528
2.956	-0.065416
2.957	-0.14892
2.958	-0.219966
2.959	-0.265357
2.96	-0.282754
2.961	-0.274068
2.962	-0.234626
2.963	-0.150605
2.964	-0.007425
2.965	0.195025
2.966	0.430455
2.967	0.650691
2.968	0.807189
2.969	0.873118
2.97	0.84933
2.971	0.753779
2.972	0.606964
2.973	0.421878
2.974	0.196474
2.975	-0.086766
2.976	-0.433929
2.977	-0.802397
2.978	-1.109455
2.979	-1.283808
2.98	-1.301645
2.981	-1.184628
2.982	-0.980587
2.983	-0.746441
2.984	-0.535207
2.985	-0.383323
2.986	-0.300716
2.987	-0.271033
2.988	-0.263646
2.989	-0.249999
2.99	-0.216009
2.991	-0.166393
2.992	-0.121681
2.993	-0.110483
2.994	-0.164652
2.995	-0.315656
2.996	-0.568765
2.997	-0.871052
2.998	-1.128559
2.999	-1.263958
3.0	-1.253035
3.001	-1.119174
3.002	-0.90992
3.003	-0.676538
3.004	-0.461624
3.005	-0.294236
3.006	-0.187985
3.007	-0.139159
3.008	-0.129057
3.009	-0.134615
3.01	-0.141682
3.011	-0.148667
3.012	-0.154511
3.013	-0.135572
3.014	-0.037484
3.015	0.189541
3.016	0.541016
3.017	0.948962
3.018	1.312951
3.019	1.542065
3.02	1.590227
3.021	1.469751
3.022	1.238636
3.023	0.971389
3.024	0.727608
3.025	0.536005
3.026	0.399931
3.027	0.311679
3.028	0.261873
3.029	0.239122
3.03	0.224673
3.031	0.194211
3.032	0.13537
3.033	0.071134
3.034	0.056783
3.035	0.137253
3.036	0.30877
3.037	0.522858
3.038	0.713573
3.039	0.824798
3.04	0.831768
3.041	0.748576
3.042	0.620404
3.043	0.506123
3.044	0.455544
3.045	0.48857
3.046	0.587726
3.047	0.710048
3.048	0.809189
3.049	0.852817
3.05	0.82786
3.051	0.734946
3.052	0.583062
3.053	0.388804
3.054	0.163987
3.055	-0.100256
3.056	-0.411137
3.057	-0.732652
3.058	-0.992966
3.059	-1.133101
3.06	-1.136756
3.061	-1.025749
3.062	-0.842461
3.063	-0.635716
3.064	-0.451844
3.065	-0.324255
3.066	-0.261137
3.067	-0.242999
3.068	-0.23702
3.069	-0.217877
3.07	-0.179611
3.071	-0.134077
3.072	-0.102824
3.073	-0.111897
3.074	-0.195425
3.075	-0.392119
3.076	-0.708093
3.077	-1.078146
3.078	-1.389963
3.079	-1.553172
3.08	-1.541032
3.081	-1.382561
3.082	-1.132698
3.083	-0.849184
3.084	-0.58228
3.085	-0.367404
3.086	-0.218387
3.087	-0.128578
3.088	-0.080108
3.089	-0.055218
3.09	-0.045461
3.091	-0.052402
3.092	-0.075411
3.093	-0.097474
3.094	-0.088058
3.095	-0.026109
3.096	0.083188
3.097	0.216915
3.098	0.347001
3.099	0.443674
3.1	0.483658
3.101	0.462719
3.102	0.399076
3.103	0.32272
3.104	0.257441
3.105	0.2086
3.106	0.166518
3.107	0.124395
3.108	0.091603
3.109	0.084397
3.11	0.107279
3.111	0.148221
3.112	0.187117
3.113	0.203087
3.114	0.170811
3.115	0.058627
3.116	-0.143801
3.117	-0.391536
3.118	-0.602798
3.119	-0.71622
3.12	-0.722538
3.121	-0.651737
3.122	-0.543295
3.123	-0.431534
3.124	-0.34801
3.125	-0.316714
3.126	-0.338929
3.127	-0.388993
3.128	-0.429691
3.129	-0.435021
3.13	-0.403983
3.131	-0.355281
3.132	-0.300396
3.133	-0.212706
3.134	-0.029794
3.135	0.297425
3.136	0.751538
3.137	1.243523
3.138	1.653975
3.139	1.885062
3.14	1.896069
3.141	1.710755
3.142	1.39837
3.143	1.041758
3.144	0.70904
3.145	0.438076
3.146	0.237453
3.147	0.099843
3.148	0.013787
3.149	-0.032933
3.15	-0.054227
3.151	-0.064311
3.152	-0.067104
3.153	-0.04309
3.154	0.040328
3.155	0.191868
3.156	0.380397
3.157	0.560386
3.158	0.694697
3.159	0.756438
3.16	0.732794
3.161	0.633989
3.162	0.494823
3.163	0.365324
3.164	0.292417
3.165	0.297482
3.166	0.364385
3.167	0.450654
3.168	0.513432
3.169	0.528781
3.17	0.494465
3.171	0.423392
3.172	0.333369
3.173	0.233951
3.174	0.114168
3.175	-0.056175
3.176	-0.292679
3.177	-0.557593
3.178	-0.775704
3.179	-0.889606
3.18	-0.88916
3.181	-0.801123
3.182	-0.66739
3.183	-0.531432
3.184	-0.430135
3.185	-0.383716
3.186	-0.389302
3.187	-0.425096
3.188	-0.460864
3.189	-0.469494
3.19	-0.43747
3.191	-0.368977
3.192	-0.283387
3.193	-0.213925
3.194	-0.208598
3.195	-0.317078
3.196	-0.548684
3.197	-0.839268
3.198	-1.083381
3.199	-1.203074
3.2	-1.182003
3.201	-1.053016
3.202	-0.869207
3.203	-0.681317
3.204	-0.526926
3.205	-0.426454
3.206	-0.381959
3.207	-0.379408
3.208	-0.395641
3.209	-0.407711
3.21	-0.400892
3.211	-0.371343
3.212	-0.318083
3.213	-0.226527
3.214	-0.066566
3.215	0.179244
3.216	0.490661
3.217	0.815632
3.218	1.087059
3.219	1.242752
3.22	1.252342
3.221	1.131337
3.222	0.928043
3.223	0.695366
3.224	0.469072
3.225	0.264321
3.226	0.087495
3.227	-0.051927
3.228	-0.142656
3.229	-0.182079
3.23	-0.182744
3.231	-0.166441
3.232	-0.145131
3.233	-0.097457
3.234	0.028308
3.235	0.267747
3.236	0.599612
3.237	0.953096
3.238	1.239445
3.239	1.386312
3.24	1.367258
3.241	1.209059
3.242	0.975018
3.243	0.738233
3.244	0.555668
3.245	0.451263
3.246	0.414573
3.247	0.414885
3.248	0.421779
3.249	0.417245
3.25	0.393919
3.251	0.348565
3.252	0.279645
3.253	0.188495
3.254	0.072574
3.255	-0.083482
3.256	-0.287455
3.257	-0.507365
3.258	-0.683589
3.259	-0.77237
3.26	-0.76695
3.261	-0.688064
3.262	-0.565794
3.263	-0.428295
3.264	-0.299091
3.265	-0.195403
3.266	-0.124946
3.267	-0.084368
3.268	-0.061203
3.269	-0.040884
3.27	-0.01629
3.271	0.007267
3.272	0.015724
3.273	-0.009241
3.274	-0.095731
3.275	-0.277941
3.276	-0.557463
3.277	-0.87052
3.278	-1.118958
3.279	-1.233364
3.28	-1.202585
3.281	-1.061846
3.282	-0.866108
3.283	-0.66885
3.284	-0.511133
3.285	-0.414839
3.286	-0.377774
3.287	-0.376624
3.288	-0.38047
3.289	-0.366433
3.29	-0.328147
3.291	-0.275288
3.292	-0.222797
3.293	-0.176593
3.294	-0.1359
3.295	-0.107939
3.296	-0.101586
3.297	-0.107617
3.298	-0.105527
3.299	-0.086894
3.3	-0.060639
3.301	-0.040728
3.302	-0.035112
3.303	-0.044269
3.304	-0.065958
3.305	-0.099815
3.306	-0.146192
3.307	-0.199986
3.308	-0.24918
3.309	-0.282579
3.31	-0.297883
3.311	-0.298244
3.312	-0.27555
3.313	-0.19427
3.314	-0.002153
3.315	0.324279
3.316	0.743968
3.317	1.16638
3.318	1.492948
3.319	1.651599
3.32	1.620324
3.321	1.432617
3.322	1.158706
3.323	0.873997
3.324	0.632845
3.325	0.458707
3.326	0.349371
3.327	0.289023
3.328	0.259421
3.329	0.244331
3.33	0.227541
3.331	0.194843
3.332	0.144436
3.333	0.091138
3.334	0.051016
3.335	0.021503
3.336	-0.012204
3.337	-0.052828
3.338	-0.089211
3.339	-0.113955
3.34	-0.12837
3.341	-0.132792
3.342	-0.11813
3.343	-0.067966
3.344	0.029333
3.345	0.168018
3.346	0.322691
3.347	0.45879
3.348	0.547875
3.349	0.577622
3.35	0.551512
3.351	0.481057
3.352	0.377368
3.353	0.243376
3.354	0.06595
3.355	-0.17742
3.356	-0.482784
3.357	-0.792691
3.358	-1.025529
3.359	-1.128742
3.36	-1.098909
3.361	-0.968207
3.362	-0.785118
3.363	-0.602125
3.364	-0.464396
3.365	-0.395504
3.366	-0.388817
3.367	-0.413301
3.368	-0.431101
3.369	-0.4158
3.37	-0.36179
3.371	-0.28305
3.372	-0.207424
3.373	-0.17154
3.374	-0.217005
3.375	-0.376731
3.376	-0.639405
3.377	-0.92987
3.378	-1.148987
3.379	-1.234051
3.38	-1.179925
3.381	-1.021683
3.382	-0.810316
3.383	-0.596705
3.384	-0.421317
3.385	-0.306987
3.386	-0.255418
3.387	-0.249321
3.388	-0.261587
3.389	-0.268979
3.39	-0.262456
3.391	-0.244106
3.392	-0.209067
3.393	-0.125048
3.394	0.061865
3.395	0.382324
3.396	0.803748
3.397	1.238345
3.398	1.581509
3.399	1.752204
3.4	1.723033
3.401	1.525409
3.402	1.2294
3.403	0.913645
3.404	0.638046
3.405	0.429516
3.406	0.284848
3.407	0.184882
3.408	0.110709
3.409	0.052043
3.41	0.004869
3.411	-0.031662
3.412	-0.047853
3.413	-0.013309
3.414	0.109345
3.415	0.327368
3.416	0.602209
3.417	0.870353
3.418	1.067837
3.419	1.1484
3.42	1.101562
3.421	0.957918
3.422	0.775609
3.423	0.617079
3.424	0.525583
3.425	0.510852
3.426	0.551365
3.427	0.610843
3.428	0.656445
3.429	0.667881
3.43	0.636814
3.431	0.561299
3.432	0.442843
3.433	0.286229
3.434	0.090739
3.435	-0.153913
3.436	-0.440517
3.437	-0.719446
3.438	-0.922744
3.439	-1.007607
3.44	-0.971693
3.441	-0.843217
3.442	-0.666981
3.443	-0.492977
3.444	-0.363991
3.445	-0.301346
3.446	-0.296435
3.447	-0.316666
3.448	-0.32443
3.449	-0.29749
3.45	-0.238051
3.451	-0.16769
3.452	-0.117045
3.453	-0.120397
3.454	-0.215873
3.455	-0.4319
3.456	-0.749334
3.457	-1.084479
3.458	-1.3319
3.459	-1.42511
3.46	-1.359355
3.461	-1.175528
3.462	-0.93276
3.463	-0.689135
3.464	-0.490732
3.465	-0.361456
3.466	-0.297341
3.467	-0.273461
3.468	-0.259972
3.469	-0.237649
3.47	-0.205954
3.471	-0.177154
3.472	-0.156124
3.473	-0.123695
3.474	-0.04592
3.475	0.096113
3.476	0.287547
3.477	0.488239
3.478	0.652328
3.479	0.743841
3.48	0.74795
3.481	0.675073
3.482	0.554191
3.483	0.41876
3.484	0.292994
3.485	0.186316
3.486	0.098295
3.487	0.027444
3.488	-0.025865
3.489	-0.063109
3.49	-0.090765
3.491	-0.115137
3.492	-0.125177
3.493	-0.079413
3.494	0.074551
3.495	0.353363
3.496	0.712184
3.497	1.065252
3.498	1.325679
3.499	1.436334
3.5	1.385537
3.501	1.206784
3.502	0.964958
3.503	0.734835
3.504	0.575851
3.505	0.508781
3.506	0.510252
3.507	0.533604
3.508	0.5383
3.509	0.505603
3.51	0.437133
3.511	0.345895
3.512	0.246462
3.513	0.143712
3.514	0.022169
3.515	-0.145807
3.516	-0.362537
3.517	-0.582867
3.518	-0.745656
3.519	-0.815979
3.52	-0.792101
3.521	-0.690315
3.522	-0.533637
3.523	-0.349067
3.524	-0.164963
3.525	-0.004366
3.526	0.121154
3.527	0.211415
3.528	0.271722
3.529	0.304759
3.53	0.305549
3.531	0.266813
3.532	0.191316
3.533	0.099678
3.534	0.025684
3.535	-0.001437
3.536	0.027669
3.537	0.100818
3.538	0.189046
3.539	0.256316
3.54	0.276209
3.541	0.245912
3.542	0.187528
3.543	0.136731
3.544	0.124485
3.545	0.159684
3.546	0.225144
3.547	0.291723
3.548	0.336459
3.549	0.34946
3.55	0.33074
3.551	0.287123
3.552	0.229328
3.553	0.160841
3.554	0.064921
3.555	-0.085616
3.556	-0.291665
3.557	-0.507487
3.558	-0.669337
3.559	-0.739426
3.56	-0.720422
3.561	-0.642524
3.562	-0.547564
3.563	-0.479508
3.564	-0.472993
3.565	-0.536207
3.566	-0.642898
3.567	-0.745366
3.568	-0.797998
3.569	-0.775795
3.57	-0.681657
3.571	-0.540666
3.572	-0.388646
3.573	-0.26941
3.574	-0.23596
3.575	-0.328906
3.576	-0.534377
3.577	-0.774244
3.578	-0.954475
3.579	-1.021583
3.58	-0.977189
3.581	-0.858554
3.582	-0.71402
3.583	-0.587522
3.584	-0.510546
3.585	-0.494863
3.586	-0.52784
3.587	-0.578226
3.588	-0.612089
3.589	-0.608112
3.59	-0.562659
3.591	-0.482356
3.592	-0.367318
3.593	-0.197725
3.594	0.054427
3.595	0.391174
3.596	0.771566
3.597	1.126703
3.598	1.383504
3.599	1.488004
3.6	1.425372
3.601	1.223521
3.602	0.938386
3.603	0.631618
3.604	0.350626
3.605	0.117832
3.606	-0.065143
3.607	-0.203161
3.608	-0.298186
3.609	-0.350675
3.61	-0.363329
3.611	-0.338278
3.612	-0.267419
3.613	-0.125406
3.614	0.116831
3.615	0.45928
3.616	0.854506
3.617	1.220424
3.618	1.470024
3.619	1.545879
3.62	1.444185
3.621	1.212611
3.622	0.926405
3.623	0.658538
3.624	0.455973
3.625	0.330905
3.626	0.268951
3.627	0.245423
3.628	0.238837
3.629	0.235701
3.63	0.227946
3.631	0.209928
3.632	0.178142
3.633	0.128287
3.634	0.046773
3.635	-0.084519
3.636	-0.260563
3.637	-0.440349
3.638	-0.573503
3.639	-0.632796
3.64	-0.620594
3.641	-0.556904
3.642	-0.467671
3.643	-0.379375
3.644	-0.314875
3.645	-0.285385
3.646	-0.284499
3.647	-0.292362
3.648	-0.286787
3.649	-0.254202
3.65	-0.195978
3.651	-0.127898
3.652	-0.074104
3.653	-0.064218
3.654	-0.135307
3.655	-0.313985
3.656	-0.577548
3.657	-0.847895
3.658	-1.038708
3.659	-1.10415
3.66	-1.049195
3.661	-0.913131
3.662	-0.74884
3.663	-0.606752
3.664	-0.522446
3.665	-0.505677
3.666	-0.536594
3.667	-0.576234
3.668	-0.587019
3.669	-0.550169
3.67	-0.470459
3.671	-0.368699
3.672	-0.266291
3.673	-0.173002
3.674	-0.092069
3.675	-0.029915
3.676	0.011047
3.677	0.039486
3.678	0.063756
3.679	0.0815
3.68	0.084248
3.681	0.066235
3.682	0.02682
3.683	-0.032854
3.684	-0.111502
3.685	-0.204959
3.686	-0.302426
3.687	-0.385476
3.688	-0.434453
3.689	-0.440521
3.69	-0.410958
3.691	-0.35733
3.692	-0.271391
3.693	-0.112649
3.694	0.167113
3.695	0.574576
3.696	1.048961
3.697	1.484403
3.698	1.777837
3.699	1.868857
3.7	1.755864
3.701	1.488671
3.702	1.146004
3.703	0.808606
3.704	0.535703
3.705	0.35056
3.706	0.241384
3.707	0.17852
3.708	0.136083
3.709	0.101923
3.71	0.073407
3.711	0.052587
3.712	0.048481
3.713	0.071559
3.714	0.114323
3.715	0.147988
3.716	0.149983
3.717	0.125175
3.718	0.093175
3.719	0.064821
3.72	0.036815
3.721	0.003352
3.722	-0.031005
3.723	-0.049355
3.724	-0.035044
3.725	0.011653
3.726	0.070817
3.727	0.117371
3.728	0.137347
3.729	0.133232
3.73	0.118026
3.731	0.103936
3.732	0.091411
3.733	0.059606
3.734	-0.032523
3.735	-0.215915
3.736	-0.469677
3.737	-0.721477
3.738	-0.895827
3.739	-0.956341
3.74	-0.91049
3.741	-0.792957
3.742	-0.650598
3.743	-0.53243
3.744	-0.475121
3.745	-0.486009
3.746	-0.53882
3.747	-0.588458
3.748	-0.595379
3.749	-0.544284
3.75	-0.447179
3.751	-0.332075
3.752	-0.229509
3.753	-0.168276
3.754	-0.176528
3.755	-0.269684
3.756	-0.425287
3.757	-0.583281
3.758	-0.684846
3.759	-0.706343
3.76	-0.659173
3.761	-0.571517
3.762	-0.475055
3.763	-0.400456
3.764	-0.371637
3.765	-0.395339
3.766	-0.454805
3.767	-0.51676
3.768	-0.549033
3.769	-0.537046
3.77	-0.487519
3.771	-0.412965
3.772	-0.304996
3.773	-0.121905
3.774	0.184819
3.775	0.619689
3.776	1.118935
3.777	1.573966
3.778	1.877495
3.779	1.964752
3.78	1.834451
3.781	1.541433
3.782	1.168871
3.783	0.796588
3.784	0.476915
3.785	0.228292
3.786	0.04727
3.787	-0.075986
3.788	-0.150119
3.789	-0.182962
3.79	-0.183895
3.791	-0.16005
3.792	-0.10501
3.793	0.003318
3.794	0.179003
3.795	0.403566
3.796	0.633955
3.797	0.824516
3.798	0.936932
3.799	0.947267
3.8	0.85625
3.801	0.693057
3.802	0.50915
3.803	0.362652
3.804	0.293731
3.805	0.303669
3.806	0.356943
3.807	0.407147
3.808	0.42426
3.809	0.403912
3.81	0.359694
3.811	0.308262
3.812	0.25641
3.813	0.192898
3.814	0.086208
3.815	-0.093424
3.816	-0.331714
3.817	-0.563508
3.818	-0.719318
3.819	-0.769315
3.82	-0.727713
3.821	-0.63365
3.822	-0.531597
3.823	-0.457937
3.824	-0.432347
3.825	-0.454648
3.826	-0.507715
3.827	-0.563559
3.828	-0.591709
3.829	-0.570215
3.83	-0.49425
3.831	-0.378078
3.832	-0.254281
3.833	-0.174262
3.834	-0.200057
3.835	-0.367725
3.836	-0.641762
3.837	-0.922228
3.838	-1.109095
3.839	-1.155857
3.84	-1.074654
3.841	-0.912684
3.842	-0.727872
3.843	-0.573482
3.844	-0.485554
3.845	-0.469888
3.846	-0.49994
3.847	-0.53292
3.848	-0.532853
3.849	-0.486611
3.85	-0.406287
3.851	-0.313895
3.852	-0.213146
3.853	-0.074794
3.854	0.140434
3.855	0.442014
3.856	0.790657
3.857	1.110531
3.858	1.323386
3.859	1.383123
3.86	1.289799
3.861	1.080581
3.862	0.807888
3.863	0.518327
3.864	0.242779
3.865	-0.000791
3.866	-0.198802
3.867	-0.337758
3.868	-0.409094
3.869	-0.417242
3.87	-0.380129
3.871	-0.315555
3.872	-0.216427
3.873	-0.042061
3.874	0.247984
3.875	0.646272
3.876	1.085218
3.877	1.464757
3.878	1.695282
3.879	1.731657
3.88	1.583736
3.881	1.305747
3.882	0.974715
3.883	0.666103
3.884	0.43195
3.885	0.286521
3.886	0.20981
3.887	0.170089
3.888	0.145054
3.889	0.12609
3.89	0.111919
3.891	0.103153
3.892	0.099599
3.893	0.091752
3.894	0.05092
3.895	-0.053793
3.896	-0.215659
3.897	-0.382734
3.898	-0.498508
3.899	-0.540431
3.9	-0.521703
3.901	-0.469241
3.902	-0.403453
3.903	-0.332618
3.904	-0.259485
3.905	-0.190221
3.906	-0.135285
3.907	-0.101465
3.908	-0.084784
3.909	-0.072706
3.91	-0.053372
3.911	-0.022311
3.912	0.012084
3.913	0.018175
3.914	-0.056621
3.915	-0.246658
3.916	-0.520071
3.917	-0.785719
3.918	-0.955258
3.919	-0.994306
3.92	-0.925284
3.921	-0.799807
3.922	-0.670985
3.923	-0.578542
3.924	-0.543351
3.925	-0.564313
3.926	-0.616797
3.927	-0.659864
3.928	-0.655392
3.929	-0.588319
3.93	-0.472469
3.931	-0.338134
3.932	-0.213762
3.933	-0.120891
3.934	-0.081335
3.935	-0.108078
3.936	-0.182464
3.937	-0.260127
3.938	-0.304967
3.939	-0.308775
3.94	-0.284068
3.941	-0.250247
3.942	-0.227495
3.943	-0.235462
3.944	-0.288341
3.945	-0.384424
3.946	-0.49942
3.947	-0.594794
3.948	-0.638203
3.949	-0.619503
3.95	-0.549197
3.951	-0.44042
3.952	-0.284637
3.953	-0.04369
3.954	0.317425
3.955	0.783072
3.956	1.278328
3.957	1.698814
3.958	1.950186
3.959	1.985213
3.96	1.82126
3.961	1.524735
3.962	1.175851
3.963	0.838459
3.964	0.548545
3.965	0.31971
3.966	0.155337
3.967	0.054392
3.968	0.007245
3.969	-0.008368
3.97	-0.021395
3.971	-0.051172
3.972	-0.089233
3.973	-0.098273
3.974	-0.040827
3.975	0.088648
3.976	0.262142
3.977	0.435963
3.978	0.566987
3.979	0.627849
3.98	0.617982
3.981	0.56187
3.982	0.495208
3.983	0.447822
3.984	0.432593
3.985	0.443747
3.986	0.46372
3.987	0.474286
3.988	0.463245
3.989	0.42274
3.99	0.348392
3.991	0.248457
3.992	0.155447
3.993	0.120533
3.994	0.18092
3.995	0.328693
3.996	0.517139
3.997	0.688775
3.998	0.795663
3.999	0.812996
4.0	0.748115
4.001	0.639007
4.002	0.541669
4.003	0.509247
4.004	0.5674
4.005	0.698375
4.006	0.848674
4.007	0.957773
4.008	0.98726
4.009	0.931101
4.01	0.806132
4.011	0.636134
4.012	0.438124
4.013	0.210369
4.014	-0.068963
4.015	-0.411298
4.016	-0.7768
4.017	-1.082545
4.018	-1.255804
4.019	-1.271925
4.02	-1.151691
4.021	-0.937634
4.022	-0.67326
4.023	-0.394327
4.024	-0.130199
4.025	0.093824
4.026	0.262016
4.027	0.374562
4.028	0.441641
4.029	0.470144
4.03	0.456973
4.031	0.391052
4.032	0.258771
4.033	0.044318
4.034	-0.270423
4.035	-0.679085
4.036	-1.116501
4.037	-1.477396
4.038	-1.67577
4.039	-1.680894
4.04	-1.513547
4.041	-1.227617
4.042	-0.892858
4.043	-0.577261
4.044	-0.328916
4.045	-0.163991
4.046	-0.067953
4.047	-0.010194
4.048	0.035726
4.049	0.077398
4.05	0.103098
4.051	0.093839
4.052	0.040302
4.053	-0.04979
4.054	-0.163326
4.055	-0.288321
4.056	-0.403112
4.057	-0.479501
4.058	-0.502103
4.059	-0.473327
4.06	-0.403412
4.061	-0.303767
4.062	-0.188272
4.063	-0.075523
4.064	0.015107
4.065	0.072069
4.066	0.097363
4.067	0.10403
4.068	0.105241
4.069	0.102225
4.07	0.083743
4.071	0.044585
4.072	0.012157
4.073	0.048104
4.074	0.205641
4.075	0.48211
4.076	0.8145
4.077	1.110079
4.078	1.287163
4.079	1.309224
4.08	1.194475
4.081	1.000563
4.082	0.798549
4.083	0.646527
4.084	0.570649
4.085	0.561353
4.086	0.586147
4.087	0.609585
4.088	0.607494
4.089	0.569346
4.09	0.492621
4.091	0.381422
4.092	0.252696
4.093	0.128253
4.094	0.010459
4.095	-0.114102
4.096	-0.242138
4.097	-0.348265
4.098	-0.409972
4.099	-0.422234
4.1	-0.391591
4.101	-0.322072
4.102	-0.205348
4.103	-0.026724
4.104	0.212963
4.105	0.480661
4.106	0.720695
4.107	0.882747
4.108	0.942432
4.109	0.90318
4.11	0.78588
4.111	0.615495
4.112	0.409976
4.113	0.167313
4.114	-0.137427
4.115	-0.514274
4.116	-0.911583
4.117	-1.232498
4.118	-1.399248
4.119	-1.392663
4.12	-1.245069
4.121	-1.012522
4.122	-0.753945
4.123	-0.522956
4.124	-0.358012
4.125	-0.267103
4.126	-0.225117
4.127	-0.192947
4.128	-0.143601
4.129	-0.077239
4.13	-0.017878
4.131	0.004053
4.132	-0.032473
4.133	-0.139687
4.134	-0.326538
4.135	-0.582161
4.136	-0.853913
4.137	-1.065786
4.138	-1.163667
4.139	-1.136757
4.14	-1.007095
4.141	-0.811008
4.142	-0.589733
4.143	-0.386296
4.144	-0.235216
4.145	-0.147456
4.146	-0.107437
4.147	-0.087867
4.148	-0.069706
4.149	-0.05308
4.15	-0.052071
4.151	-0.070465
4.152	-0.073858
4.153	0.006604
4.154	0.225528
4.155	0.572899
4.156	0.971378
4.157	1.314352
4.158	1.512458
4.159	1.527823
4.16	1.382976
4.161	1.142941
4.162	0.883602
4.163	0.663282
4.164	0.507635
4.165	0.412057
4.166	0.35701
4.167	0.322293
4.168	0.291977
4.169	0.253052
4.17	0.196143
4.171	0.124156
4.172	0.062629
4.173	0.049557
4.174	0.100472
4.175	0.193787
4.176	0.295189
4.177	0.376688
4.178	0.416049
4.179	0.401553
4.18	0.3425
4.181	0.271033
4.182	0.232466
4.183	0.266784
4.184	0.385908
4.185	0.561039
4.186	0.734671
4.187	0.851374
4.188	0.882327
4.189	0.828127
4.19	0.708246
4.191	0.547093
4.192	0.360305
4.193	0.144268
4.194	-0.121859
4.195	-0.443734
4.196	-0.775311
4.197	-1.03613
4.198	-1.166289
4.199	-1.154964
4.2	-1.029933
4.201	-0.836651
4.202	-0.624585
4.203	-0.437376
4.204	-0.302375
4.205	-0.225487
4.206	-0.194663
4.207	-0.187495
4.208	-0.180599
4.209	-0.159995
4.21	-0.127074
4.211	-0.097931
4.212	-0.101725
4.213	-0.18062
4.214	-0.37685
4.215	-0.691271
4.216	-1.050884
4.217	-1.342219
4.218	-1.481468
4.219	-1.44919
4.22	-1.278166
4.221	-1.025166
4.222	-0.749664
4.223	-0.503757
4.224	-0.323254
4.225	-0.216196
4.226	-0.161882
4.227	-0.127932
4.228	-0.092387
4.229	-0.054895
4.23	-0.032074
4.231	-0.037422
4.232	-0.054621
4.233	-0.034337
4.234	0.068797
4.235	0.258732
4.236	0.495254
4.237	0.712593
4.238	0.848359
4.239	0.873584
4.24	0.802002
4.241	0.674381
4.242	0.533637
4.243	0.406868
4.244	0.30201
4.245	0.217171
4.246	0.151856
4.247	0.108903
4.248	0.086814
4.249	0.073199
4.25	0.049874
4.251	0.012085
4.252	-0.007435
4.253	0.056317
4.254	0.248964
4.255	0.552418
4.256	0.892282
4.257	1.173742
4.258	1.321062
4.259	1.307958
4.26	1.162926
4.261	0.951503
4.262	0.748916
4.263	0.612827
4.264	0.564793
4.265	0.58743
4.266	0.639308
4.267	0.679463
4.268	0.683297
4.269	0.641784
4.27	0.554411
4.271	0.42669
4.272	0.270056
4.273	0.09094
4.274	-0.121071
4.275	-0.371319
4.276	-0.625487
4.277	-0.821581
4.278	-0.914574
4.279	-0.898308
4.28	-0.795887
4.281	-0.64093
4.282	-0.466475
4.283	-0.302384
4.284	-0.171575
4.285	-0.083644
4.286	-0.032804
4.287	-0.003497
4.288	0.019126
4.289	0.039895
4.29	0.051162
4.291	0.039341
4.292	-0.010827
4.293	-0.124967
4.294	-0.335928
4.295	-0.642942
4.296	-0.978366
4.297	-1.240389
4.298	-1.357914
4.299	-1.319835
4.3	-1.160946
4.301	-0.934166
4.302	-0.69116
4.303	-0.474036
4.304	-0.309941
4.305	-0.205864
4.306	-0.149435
4.307	-0.119037
4.308	-0.096337
4.309	-0.073713
4.31	-0.055763
4.311	-0.054313
4.312	-0.082885
4.313	-0.161039
4.314	-0.313019
4.315	-0.536462
4.316	-0.77603
4.317	-0.952853
4.318	-1.018538
4.319	-0.972702
4.32	-0.842089
4.321	-0.658355
4.322	-0.455043
4.323	-0.269913
4.324	-0.134564
4.325	-0.057926
4.326	-0.023213
4.327	-0.004118
4.328	0.013341
4.329	0.021538
4.33	0.004462
4.331	-0.033793
4.332	-0.047328
4.333	0.039078
4.334	0.275902
4.335	0.640037
4.336	1.041256
4.337	1.367856
4.338	1.533959
4.339	1.511902
4.34	1.337333
4.341	1.085787
4.342	0.83711
4.343	0.646314
4.344	0.532152
4.345	0.482973
4.346	0.47113
4.347	0.467814
4.348	0.450976
4.349	0.404767
4.35	0.321682
4.351	0.212895
4.352	0.11248
4.353	0.059656
4.354	0.068475
4.355	0.120554
4.356	0.186766
4.357	0.241792
4.358	0.265034
4.359	0.247533
4.36	0.201195
4.361	0.158526
4.362	0.160761
4.363	0.237699
4.364	0.388707
4.365	0.5783
4.366	0.752117
4.367	0.862486
4.368	0.886045
4.369	0.825206
4.37	0.697523
4.371	0.522616
4.372	0.312414
4.373	0.063651
4.374	-0.237104
4.375	-0.580964
4.376	-0.911021
4.377	-1.149946
4.378	-1.249811
4.379	-1.209132
4.38	-1.058841
4.381	-0.845371
4.382	-0.620766
4.383	-0.433085
4.384	-0.313329
4.385	-0.262928
4.386	-0.252735
4.387	-0.24228
4.388	-0.20569
4.389	-0.142097
4.39	-0.067508
4.391	3.7e-05
4.392	0.046538
4.393	0.053128
4.394	-0.006287
4.395	-0.137661
4.396	-0.302199
4.397	-0.439813
4.398	-0.513055
4.399	-0.521192
4.4	-0.484711
4.401	-0.426337
4.402	-0.363199
4.403	-0.307537
4.404	-0.268232
4.405	-0.249964
4.406	-0.250434
4.407	-0.259239
4.408	-0.261918
4.409	-0.247259
4.41	-0.212548
4.411	-0.166624
4.412	-0.133694
4.413	-0.155763
4.414	-0.277329
4.415	-0.501273
4.416	-0.762612
4.417	-0.968648
4.418	-1.060967
4.419	-1.034209
4.42	-0.916962
4.421	-0.752311
4.422	-0.589265
4.423	-0.471927
4.424	-0.422236
4.425	-0.429465
4.426	-0.457993
4.427	-0.468605
4.428	-0.439274
4.429	-0.373884
4.43	-0.294094
4.431	-0.22148
4.432	-0.163743
4.433	-0.116192
4.434	-0.07456
4.435	-0.037832
4.436	-0.001741
4.437	0.035861
4.438	0.066555
4.439	0.078744
4.44	0.069629
4.441	0.044943
4.442	0.009048
4.443	-0.041257
4.444	-0.110588
4.445	-0.193579
4.446	-0.2723
4.447	-0.325438
4.448	-0.341487
4.449	-0.325962
4.45	-0.293654
4.451	-0.244714
4.452	-0.143291
4.453	0.068465
4.454	0.419384
4.455	0.871003
4.456	1.327433
4.457	1.675911
4.458	1.832649
4.459	1.775486
4.46	1.545969
4.461	1.224674
4.462	0.89783
4.463	0.628227
4.464	0.440286
4.465	0.324812
4.466	0.256935
4.467	0.213072
4.468	0.178468
4.469	0.146308
4.47	0.113834
4.471	0.083185
4.472	0.064899
4.473	0.067187
4.474	0.079102
4.475	0.081565
4.476	0.071576
4.477	0.058182
4.478	0.044577
4.479	0.026758
4.48	0.003471
4.481	-0.016092
4.482	-0.01242
4.483	0.033082
4.484	0.120829
4.485	0.226695
4.486	0.316378
4.487	0.366687
4.488	0.373719
4.489	0.346403
4.49	0.296236
4.491	0.229488
4.492	0.141613
4.493	0.01157
4.494	-0.188516
4.495	-0.454329
4.496	-0.725467
4.497	-0.920651
4.498	-0.992152
4.499	-0.944525
4.5	-0.8184
4.501	-0.665308
4.502	-0.530267
4.503	-0.443108
4.504	-0.412987
4.505	-0.427867
4.506	-0.461821
4.507	-0.485501
4.508	-0.476449
4.509	-0.42776
4.51	-0.350176
4.511	-0.266168
4.512	-0.204684
4.513	-0.201311
4.514	-0.286111
4.515	-0.451174
4.516	-0.637876
4.517	-0.773158
4.518	-0.815938
4.519	-0.76853
4.52	-0.659588
4.521	-0.525517
4.522	-0.402414
4.523	-0.32164
4.524	-0.298685
4.525	-0.322443
4.526	-0.360143
4.527	-0.378076
4.528	-0.362083
4.529	-0.323031
4.53	-0.282275
4.531	-0.239826
4.532	-0.15032
4.533	0.056476
4.534	0.416494
4.535	0.887559
4.536	1.360729
4.537	1.71367
4.538	1.865031
4.539	1.800529
4.54	1.566289
4.541	1.24052
4.542	0.900665
4.543	0.60118
4.544	0.366349
4.545	0.196801
4.546	0.083543
4.547	0.016353
4.548	-0.017333
4.549	-0.03407
4.55	-0.048046
4.551	-0.055956
4.552	-0.028855
4.553	0.066707
4.554	0.231796
4.555	0.428513
4.556	0.607431
4.557	0.728631
4.558	0.766953
4.559	0.71783
4.56	0.602869
4.561	0.466294
4.562	0.360925
4.563	0.326772
4.564	0.370683
4.565	0.462753
4.566	0.555283
4.567	0.609153
4.568	0.607546
4.569	0.553138
4.57	0.460544
4.571	0.347645
4.572	0.221092
4.573	0.065226
4.574	-0.144194
4.575	-0.401514
4.576	-0.652823
4.577	-0.829111
4.578	-0.892834
4.579	-0.850751
4.58	-0.737003
4.581	-0.593806
4.582	-0.461497
4.583	-0.371292
4.584	-0.335679
4.585	-0.344372
4.586	-0.371851
4.587	-0.389885
4.588	-0.378334
4.589	-0.332426
4.59	-0.26337
4.591	-0.194737
4.592	-0.163594
4.593	-0.220018
4.594	-0.400891
4.595	-0.684509
4.596	-0.982198
4.597	-1.191447
4.598	-1.255985
4.599	-1.180645
4.6	-1.00996
4.601	-0.800714
4.602	-0.603078
4.603	-0.4513
4.604	-0.360139
4.605	-0.324713
4.606	-0.325023
4.607	-0.335974
4.608	-0.33822
4.609	-0.323152
4.61	-0.2897
4.611	-0.232934
4.612	-0.132202
4.613	0.040108
4.614	0.289641
4.615	0.586258
4.616	0.874989
4.617	1.092159
4.618	1.187454
4.619	1.148399
4.62	1.004211
4.621	0.804515
4.622	0.592331
4.623	0.391096
4.624	0.209851
4.625	0.055902
4.626	-0.059164
4.627	-0.125811
4.628	-0.147475
4.629	-0.142541
4.63	-0.131018
4.631	-0.111422
4.632	-0.045946
4.633	0.119082
4.634	0.403421
4.635	0.7652
4.636	1.117918
4.637	1.368881
4.638	1.458252
4.639	1.381699
4.64	1.185284
4.641	0.941294
4.642	0.719736
4.643	0.5651
4.644	0.486501
4.645	0.464128
4.646	0.466147
4.647	0.466068
4.648	0.450191
4.649	0.413492
4.65	0.353749
4.651	0.270967
4.652	0.165768
4.653	0.030257
4.654	-0.149022
4.655	-0.363413
4.656	-0.568479
4.657	-0.71092
4.658	-0.762332
4.659	-0.726634
4.66	-0.626663
4.661	-0.487632
4.662	-0.32888
4.663	-0.166136
4.664	-0.015794
4.665	0.106482
4.666	0.191464
4.667	0.239926
4.668	0.259287
4.669	0.255815
4.67	0.229155
4.671	0.17313
4.672	0.074495
4.673	-0.092931
4.674	-0.350834
4.675	-0.674261
4.676	-0.982797
4.677	-1.187927
4.678	-1.244137
4.679	-1.160761
4.68	-0.983595
4.681	-0.770572
4.682	-0.574012
4.683	-0.429703
4.684	-0.35009
4.685	-0.323472
4.686	-0.321881
4.687	-0.316076
4.688	-0.28956
4.689	-0.243563
4.69	-0.192385
4.691	-0.151836
4.692	-0.131534
4.693	-0.140656
4.694	-0.188874
4.695	-0.268313
4.696	-0.346025
4.697	-0.386856
4.698	-0.378231
4.699	-0.331471
4.7	-0.26749
4.701	-0.204686
4.702	-0.155882
4.703	-0.12936
4.704	-0.129085
4.705	-0.152594
4.706	-0.188721
4.707	-0.221654
4.708	-0.241271
4.709	-0.248738
4.71	-0.246565
4.711	-0.217777
4.712	-0.117459
4.713	0.103935
4.714	0.457456
4.715	0.889657
4.716	1.298241
4.717	1.578599
4.718	1.669493
4.719	1.573201
4.72	1.344697
4.721	1.061229
4.722	0.79086
4.723	0.573965
4.724	0.422216
4.725	0.328862
4.726	0.279196
4.727	0.256332
4.728	0.242634
4.729	0.219604
4.73	0.174817
4.731	0.114448
4.732	0.059876
4.733	0.022939
4.734	-0.006569
4.735	-0.041932
4.736	-0.081072
4.737	-0.113819
4.738	-0.135163
4.739	-0.144559
4.74	-0.137147
4.741	-0.098296
4.742	-0.008251
4.743	0.142388
4.744	0.338106
4.745	0.539858
4.746	0.702141
4.747	0.791729
4.748	0.796956
4.749	0.726141
4.75	0.599203
4.751	0.436331
4.752	0.244374
4.753	0.009049
4.754	-0.285335
4.755	-0.615628
4.756	-0.912426
4.757	-1.103065
4.758	-1.154282
4.759	-1.078152
4.76	-0.915233
4.761	-0.718337
4.762	-0.540968
4.763	-0.422708
4.764	-0.374786
4.765	-0.378366
4.766	-0.397819
4.767	-0.39991
4.768	-0.368619
4.769	-0.308621
4.77	-0.238866
4.771	-0.186587
4.772	-0.187222
4.773	-0.280801
4.774	-0.487008
4.775	-0.769629
4.776	-1.040259
4.777	-1.211035
4.778	-1.241325
4.779	-1.142757
4.78	-0.957766
4.781	-0.738058
4.782	-0.531721
4.783	-0.373701
4.784	-0.278354
4.785	-0.238373
4.786	-0.232167
4.787	-0.236023
4.788	-0.23518
4.789	-0.227531
4.79	-0.214032
4.791	-0.178849
4.792	-0.079302
4.793	0.130746
4.794	0.45762
4.795	0.849386
4.796	1.216364
4.797	1.469203
4.798	1.553743
4.799	1.46841
4.8	1.257458
4.801	0.988305
4.802	0.725836
4.803	0.511531
4.804	0.356216
4.805	0.248859
4.806	0.171825
4.807	0.112847
4.808	0.068343
4.809	0.037463
4.81	0.012548
4.811	-0.023292
4.812	-0.086399
4.813	-0.17943
4.814	-0.283952
4.815	-0.365067
4.816	-0.391631
4.817	-0.357503
4.818	-0.283052
4.819	-0.198217
4.82	-0.126956
4.821	-0.085166
4.822	-0.085581
4.823	-0.136867
4.824	-0.233591
4.825	-0.349367
4.826	-0.446229
4.827	-0.494389
4.828	-0.486527
4.829	-0.436651
4.83	-0.361044
4.831	-0.25006
4.832	-0.059266
4.833	0.2554
4.834	0.687218
4.835	1.165847
4.836	1.585976
4.837	1.849392
4.838	1.902174
4.839	1.752095
4.84	1.457985
4.841	1.101646
4.842	0.758434
4.843	0.476111
4.844	0.269307
4.845	0.130373
4.846	0.044956
4.847	-0.000158
4.848	-0.016755
4.849	-0.014956
4.85	-0.000821
4.851	0.026741
4.852	0.072321
4.853	0.127948
4.854	0.16908
4.855	0.179028
4.856	0.164113
4.857	0.137747
4.858	0.104961
4.859	0.065823
4.86	0.024955
4.861	-0.004151
4.862	-0.003079
4.863	0.039843
4.864	0.117309
4.865	0.20344
4.866	0.270137
4.867	0.303611
4.868	0.306218
4.869	0.287873
4.87	0.257493
4.871	0.215997
4.872	0.14823
4.873	0.021369
4.874	-0.189057
4.875	-0.45799
4.876	-0.711339
4.877	-0.875608
4.878	-0.919754
4.879	-0.859185
4.88	-0.737681
4.881	-0.607413
4.882	-0.514014
4.883	-0.484337
4.884	-0.516893
4.885	-0.5831
4.886	-0.64204
4.887	-0.658226
4.888	-0.613959
4.889	-0.514458
4.89	-0.384353
4.891	-0.258556
4.892	-0.177694
4.893	-0.185055
4.894	-0.301905
4.895	-0.494447
4.896	-0.684213
4.897	-0.799436
4.898	-0.812697
4.899	-0.74114
4.9	-0.625842
4.901	-0.509953
4.902	-0.425668
4.903	-0.390502
4.904	-0.405681
4.905	-0.455076
4.906	-0.510206
4.907	-0.542489
4.908	-0.536183
4.909	-0.492346
4.91	-0.416909
4.911	-0.295622
4.912	-0.084052
4.913	0.259188
4.914	0.723976
4.915	1.234823
4.916	1.678747
4.917	1.95302
4.918	2.005266
4.919	1.845309
4.92	1.531265
4.921	1.144105
4.922	0.761567
4.923	0.438312
4.924	0.195579
4.925	0.025565
4.926	-0.089881
4.927	-0.163615
4.928	-0.202216
4.929	-0.210899
4.93	-0.191607
4.931	-0.132214
4.932	-0.005656
4.933	0.20475
4.934	0.478646
4.935	0.762066
4.936	0.991321
4.937	1.115709
4.938	1.113212
4.939	0.996762
4.94	0.808972
4.941	0.607171
4.942	0.44392
4.943	0.349577
4.944	0.32361
4.945	0.341248
4.946	0.372044
4.947	0.394587
4.948	0.397829
4.949	0.376045
4.95	0.329076
4.951	0.263206
4.952	0.17813
4.953	0.053596
4.954	-0.130212
4.955	-0.353946
4.956	-0.559144
4.957	-0.689769
4.958	-0.724978
4.959	-0.679652
4.96	-0.58818
4.961	-0.491019
4.962	-0.426497
4.963	-0.419679
4.964	-0.469072
4.965	-0.544507
4.966	-0.602933
4.967	-0.61026
4.968	-0.555283
4.969	-0.45189
4.97	-0.330039
4.971	-0.224681
4.972	-0.177222
4.973	-0.236122
4.974	-0.42374
4.975	-0.694528
4.976	-0.950437
4.977	-1.104712
4.978	-1.125536
4.979	-1.033286
4.98	-0.8755
4.981	-0.704642
4.982	-0.564625
4.983	-0.482249
4.984	-0.461007
4.985	-0.480587
4.986	-0.507019
4.987	-0.510403
4.988	-0.478618
4.989	-0.417055
4.99	-0.335304
4.991	-0.230324
4.992	-0.083007
4.993	0.120261
4.994	0.365357
4.995	0.615918
4.996	0.829006
4.997	0.963158
4.998	0.989983
4.999	0.90768
5.0	0.741984
5.001	0.533223
5.002	0.319166
5.003	0.123749
5.004	-0.04395
5.005	-0.181854
5.006	-0.285666
5.007	-0.348712
5.008	-0.370022
5.009	-0.356297
5.01	-0.309106
5.011	-0.207326
5.012	-0.009117
5.013	0.312027
5.014	0.729609
5.015	1.167547
5.016	1.531726
5.017	1.741086
5.018	1.753959
5.019	1.582187
5.02	1.28474
5.021	0.94637
5.022	0.648846
5.023	0.441544
5.024	0.326768
5.025	0.271615
5.026	0.236393
5.027	0.197937
5.028	0.154731
5.029	0.117001
5.03	0.094459
5.031	0.088561
5.032	0.08377
5.033	0.042943
5.034	-0.066201
5.035	-0.22977
5.036	-0.392056
5.037	-0.501689
5.038	-0.540785
5.039	-0.518423
5.04	-0.451693
5.041	-0.354287
5.042	-0.236214
5.043	-0.109643
5.044	0.008766
5.045	0.103936
5.046	0.170014
5.047	0.210824
5.048	0.232977
5.049	0.238592
5.05	0.223027
5.051	0.177464
5.052	0.086534
5.053	-0.075633
5.054	-0.319938
5.055	-0.604911
5.056	-0.850371
5.057	-0.991337
5.058	-1.009258
5.059	-0.926005
5.06	-0.785446
5.061	-0.638506
5.062	-0.530799
5.063	-0.489101
5.064	-0.510479
5.065	-0.563563
5.066	-0.604198
5.067	-0.597104
5.068	-0.53149
5.069	-0.422656
5.07	-0.301698
5.071	-0.201525
5.072	-0.151609
5.073	-0.179374
5.074	-0.292443
5.075	-0.453377
5.076	-0.595304
5.077	-0.667893
5.078	-0.661017
5.079	-0.595531
5.08	-0.503873
5.081	-0.417493
5.082	-0.362405
5.083	-0.35423
5.084	-0.391551
5.085	-0.454443
5.086	-0.511528
5.087	-0.534781
5.088	-0.514424
5.089	-0.460035
5.09	-0.380212
5.091	-0.253762
5.092	-0.028519
5.093	0.334711
5.094	0.814276
5.095	1.323103
5.096	1.744213
5.097	1.979565
5.098	1.986583
5.099	1.786329
5.1	1.447099
5.101	1.056149
5.102	0.690939
5.103	0.398849
5.104	0.191447
5.105	0.054721
5.106	-0.032646
5.107	-0.086085
5.108	-0.113789
5.109	-0.121177
5.11	-0.107179
5.111	-0.053179
5.112	0.067598
5.113	0.255342
5.114	0.47196
5.115	0.668947
5.116	0.809505
5.117	0.86894
5.118	0.835446
5.119	0.718181
5.12	0.552679
5.121	0.391657
5.122	0.282238
5.123	0.244886
5.124	0.267997
5.125	0.321038
5.126	0.373952
5.127	0.407132
5.128	0.410753
5.129	0.381947
5.13	0.324203
5.131	0.244691
5.132	0.14152
5.133	-0.005738
5.134	-0.211108
5.135	-0.444516
5.136	-0.641771
5.137	-0.752292
5.138	-0.765842
5.139	-0.704948
5.14	-0.607695
5.141	-0.517338
5.142	-0.473942
5.143	-0.498753
5.144	-0.58028
5.145	-0.678009
5.146	-0.742745
5.147	-0.739902
5.148	-0.663646
5.149	-0.535442
5.15	-0.390581
5.151	-0.26777
5.152	-0.210704
5.153	-0.263319
5.154	-0.435976
5.155	-0.674096
5.156	-0.884285
5.157	-0.996046
5.158	-0.993386
5.159	-0.903396
5.16	-0.770372
5.161	-0.638195
5.162	-0.542606
5.163	-0.503649
5.164	-0.518068
5.165	-0.56057
5.166	-0.596829
5.167	-0.600226
5.168	-0.562516
5.169	-0.491789
5.17	-0.394922
5.171	-0.255322
5.172	-0.034147
5.173	0.292465
5.174	0.699103
5.175	1.116081
5.176	1.456424
5.177	1.644768
5.178	1.644115
5.179	1.46807
5.18	1.17072
5.181	0.822485
5.182	0.48493
5.183	0.194046
5.184	-0.039563
5.185	-0.216622
5.186	-0.337905
5.187	-0.404044
5.188	-0.420014
5.189	-0.394217
5.19	-0.327286
5.191	-0.197086
5.192	0.034173
5.193	0.378148
5.194	0.79172
5.195	1.196259
5.196	1.508754
5.197	1.662745
5.198	1.628908
5.199	1.426906
5.2	1.118394
5.201	0.786132
5.202	0.504965
5.203	0.313868
5.204	0.20828
5.205	0.160056
5.206	0.14369
5.207	0.14467
5.208	0.152934
5.209	0.158486
5.21	0.15352
5.211	0.134923
5.212	0.097642
5.213	0.024818
5.214	-0.096222
5.215	-0.244729
5.216	-0.375215
5.217	-0.454053
5.218	-0.475283
5.219	-0.451658
5.22	-0.404633
5.221	-0.361688
5.222	-0.351806
5.223	-0.39154
5.224	-0.47133
5.225	-0.557297
5.226	-0.608369
5.227	-0.596638
5.228	-0.519919
5.229	-0.400474
5.23	-0.272454
5.231	-0.170672
5.232	-0.131762
5.233	-0.192332
5.234	-0.359079
5.235	-0.582174
5.236	-0.782942
5.237	-0.906206
5.238	-0.936623
5.239	-0.879626
5.24	-0.742677
5.241	-0.533459
5.242	-0.266796
5.243	0.031029
5.244	0.323331
5.245	0.570153
5.246	0.740383
5.247	0.819681
5.248	0.807387
5.249	0.710524
5.25	0.541811
5.251	0.314948
5.252	0.033786
5.253	-0.308252
5.254	-0.699156
5.255	-1.07955
5.256	-1.364749
5.257	-1.495458
5.258	-1.460856
5.259	-1.289127
5.26	-1.030005
5.261	-0.741521
5.262	-0.477898
5.263	-0.275284
5.264	-0.142312
5.265	-0.063788
5.266	-0.01554
5.267	0.020425
5.268	0.048387
5.269	0.058755
5.27	0.033175
5.271	-0.048192
5.272	-0.204601
5.273	-0.450837
5.274	-0.771095
5.275	-1.097065
5.276	-1.337833
5.277	-1.433842
5.278	-1.377616
5.279	-1.199806
5.28	-0.948253
5.281	-0.672502
5.282	-0.414156
5.283	-0.202605
5.284	-0.052586
5.285	0.037519
5.286	0.081454
5.287	0.093895
5.288	0.080797
5.289	0.041322
5.29	-0.015937
5.291	-0.050932
5.292	0.003692
5.293	0.194301
5.294	0.503593
5.295	0.857205
5.296	1.158333
5.297	1.327144
5.298	1.33263
5.299	1.19896
5.3	0.987224
5.301	0.767911
5.302	0.595151
5.303	0.490624
5.304	0.44301
5.305	0.422485
5.306	0.400771
5.307	0.361868
5.308	0.299499
5.309	0.213296
5.31	0.115256
5.311	0.042134
5.312	0.046819
5.313	0.159296
5.314	0.359675
5.315	0.589485
5.316	0.7783
5.317	0.871433
5.318	0.85317
5.319	0.751158
5.32	0.621712
5.321	0.52626
5.322	0.506957
5.323	0.570763
5.324	0.689609
5.325	0.816934
5.326	0.909851
5.327	0.941558
5.328	0.900126
5.329	0.783272
5.33	0.59923
5.331	0.366529
5.332	0.098053
5.333	-0.20929
5.334	-0.547637
5.335	-0.868458
5.336	-1.10226
5.337	-1.202884
5.338	-1.166126
5.339	-1.020221
5.34	-0.808931
5.341	-0.579844
5.342	-0.376876
5.343	-0.229535
5.344	-0.14211
5.345	-0.094945
5.346	-0.060687
5.347	-0.022461
5.348	0.018397
5.349	0.044852
5.35	0.033724
5.351	-0.037041
5.352	-0.193474
5.353	-0.460443
5.354	-0.822628
5.355	-1.198504
5.356	-1.479579
5.357	-1.594684
5.358	-1.535529
5.359	-1.340722
5.36	-1.068654
5.361	-0.778391
5.362	-0.518817
5.363	-0.320598
5.364	-0.190548
5.365	-0.113835
5.366	-0.066901
5.367	-0.033583
5.368	-0.01286
5.369	-0.012674
5.37	-0.035233
5.371	-0.067538
5.372	-0.089066
5.373	-0.089999
5.374	-0.07427
5.375	-0.046068
5.376	-0.007505
5.377	0.03295
5.378	0.062563
5.379	0.075382
5.38	0.077584
5.381	0.081379
5.382	0.094203
5.383	0.113877
5.384	0.131911
5.385	0.139589
5.386	0.132636
5.387	0.111031
5.388	0.074162
5.389	0.022813
5.39	-0.025816
5.391	-0.027264
5.392	0.072914
5.393	0.297902
5.394	0.614949
5.395	0.948742
5.396	1.211145
5.397	1.334149
5.398	1.299079
5.399	1.141921
5.4	0.931861
5.401	0.739747
5.402	0.611958
5.403	0.559674
5.404	0.565504
5.405	0.598813
5.406	0.628726
5.407	0.631062
5.408	0.590666
5.409	0.50273
5.41	0.375951
5.411	0.232013
5.412	0.091903
5.413	-0.040093
5.414	-0.167711
5.415	-0.281599
5.416	-0.36287
5.417	-0.401159
5.418	-0.39751
5.419	-0.355179
5.42	-0.274002
5.421	-0.153008
5.422	0.003062
5.423	0.178659
5.424	0.347998
5.425	0.483696
5.426	0.567915
5.427	0.595883
5.428	0.571151
5.429	0.499763
5.43	0.384991
5.431	0.222267
5.432	-0.003814
5.433	-0.308874
5.434	-0.67489
5.435	-1.030705
5.436	-1.286568
5.437	-1.386918
5.438	-1.328942
5.439	-1.14847
5.44	-0.900774
5.441	-0.646267
5.442	-0.435293
5.443	-0.293677
5.444	-0.218193
5.445	-0.184817
5.446	-0.163547
5.447	-0.132869
5.448	-0.088868
5.449	-0.045003
5.45	-0.025517
5.451	-0.058752
5.452	-0.172497
5.453	-0.381847
5.454	-0.662845
5.455	-0.943081
5.456	-1.138179
5.457	-1.19987
5.458	-1.129814
5.459	-0.962748
5.46	-0.745129
5.461	-0.521988
5.462	-0.330097
5.463	-0.192273
5.464	-0.113392
5.465	-0.081662
5.466	-0.076233
5.467	-0.079088
5.468	-0.084267
5.469	-0.094468
5.47	-0.100739
5.471	-0.061839
5.472	0.082423
5.473	0.362208
5.474	0.742672
5.475	1.135474
5.476	1.438746
5.477	1.5795
5.478	1.539905
5.479	1.35615
5.48	1.09744
5.481	0.838524
5.482	0.633441
5.483	0.499997
5.484	0.424867
5.485	0.385559
5.486	0.366957
5.487	0.357712
5.488	0.340448
5.489	0.295108
5.49	0.218402
5.491	0.140771
5.492	0.109334
5.493	0.145885
5.494	0.231923
5.495	0.32898
5.496	0.399643
5.497	0.420177
5.498	0.389513
5.499	0.329735
5.5	0.277533
5.501	0.270791
5.502	0.332654
5.503	0.458147
5.504	0.614381
5.505	0.757612
5.506	0.852718
5.507	0.880579
5.508	0.835337
5.509	0.720768
5.51	0.5484
5.511	0.33119
5.512	0.070723
5.513	-0.239974
5.514	-0.584306
5.515	-0.902667
5.516	-1.121828
5.517	-1.199184
5.518	-1.138003
5.519	-0.974632
5.52	-0.759861
5.521	-0.547093
5.522	-0.382041
5.523	-0.287292
5.524	-0.252902
5.525	-0.24621
5.526	-0.233435
5.527	-0.196828
5.528	-0.141156
5.529	-0.089069
5.53	-0.069443
5.531	-0.11329
5.532	-0.257019
5.533	-0.523777
5.534	-0.882489
5.535	-1.239193
5.536	-1.486727
5.537	-1.563575
5.538	-1.471637
5.539	-1.25667
5.54	-0.979674
5.541	-0.69867
5.542	-0.460213
5.543	-0.290402
5.544	-0.188542
5.545	-0.133694
5.546	-0.101531
5.547	-0.078398
5.548	-0.064818
5.549	-0.067499
5.55	-0.080639
5.551	-0.072293
5.552	0.00115
5.553	0.160323
5.554	0.383917
5.555	0.619734
5.556	0.808353
5.557	0.904973
5.558	0.894802
5.559	0.796247
5.56	0.649769
5.561	0.498926
5.562	0.373891
5.563	0.284233
5.564	0.223226
5.565	0.179233
5.566	0.143477
5.567	0.109327
5.568	0.069718
5.569	0.022811
5.57	-0.013702
5.571	0.004878
5.572	0.128463
5.573	0.367764
5.574	0.675936
5.575	0.974952
5.576	1.190505
5.577	1.274286
5.578	1.21777
5.579	1.05458
5.58	0.848481
5.581	0.67157
5.582	0.577301
5.583	0.577225
5.584	0.637864
5.585	0.703373
5.586	0.727904
5.587	0.693865
5.588	0.608435
5.589	0.491004
5.59	0.359887
5.591	0.217811
5.592	0.044366
5.593	-0.186992
5.594	-0.469311
5.595	-0.744951
5.596	-0.940708
5.597	-1.014793
5.598	-0.967993
5.599	-0.826011
5.6	-0.623268
5.601	-0.397142
5.602	-0.182781
5.603	-0.004625
5.604	0.128183
5.605	0.218854
5.606	0.276351
5.607	0.308229
5.608	0.315016
5.609	0.289436
5.61	0.219501
5.611	0.087804
5.612	-0.130399
5.613	-0.448083
5.614	-0.829974
5.615	-1.188216
5.616	-1.428587
5.617	-1.499584
5.618	-1.404475
5.619	-1.186126
5.62	-0.90717
5.621	-0.632185
5.622	-0.410787
5.623	-0.264719
5.624	-0.18557
5.625	-0.145464
5.626	-0.11527
5.627	-0.079503
5.628	-0.040245
5.629	-0.012522
5.63	-0.015212
5.631	-0.061871
5.632	-0.159659
5.633	-0.307604
5.634	-0.482487
5.635	-0.636442
5.636	-0.723493
5.637	-0.725015
5.638	-0.65019
5.639	-0.523391
5.64	-0.374103
5.641	-0.230933
5.642	-0.116774
5.643	-0.044635
5.644	-0.014381
5.645	-0.013028
5.646	-0.022432
5.647	-0.031495
5.648	-0.041917
5.649	-0.059122
5.65	-0.071518
5.651	-0.035739
5.652	0.103954
5.653	0.367409
5.654	0.712505
5.655	1.053675
5.656	1.301509
5.657	1.400071
5.658	1.345044
5.659	1.176773
5.66	0.959232
5.661	0.755346
5.662	0.604542
5.663	0.512384
5.664	0.459422
5.665	0.421289
5.666	0.382852
5.667	0.33883
5.668	0.28978
5.669	0.243365
5.67	0.220382
5.671	0.257423
5.672	0.390273
5.673	0.622035
5.674	0.911813
5.675	1.192821
5.676	1.396024
5.677	1.471451
5.678	1.404649
5.679	1.218642
5.68	0.96155
5.681	0.687607
5.682	0.438657
5.683	0.234017
5.684	0.073672
5.685	-0.049905
5.686	-0.141133
5.687	-0.199094
5.688	-0.221989
5.689	-0.208024
5.69	-0.146884
5.691	-0.014049
5.692	0.211298
5.693	0.517296
5.694	0.85488
5.695	1.155636
5.696	1.352369
5.697	1.402657
5.698	1.30743
5.699	1.108861
5.7	0.871189
5.701	0.656734
5.702	0.504998
5.703	0.423583
5.704	0.394817
5.705	0.391549
5.706	0.39158
5.707	0.382822
5.708	0.359501
5.709	0.317156
5.71	0.253102
5.711	0.164454
5.712	0.037438
5.713	-0.145097
5.714	-0.370025
5.715	-0.584013
5.716	-0.728076
5.717	-0.773087
5.718	-0.725719
5.719	-0.615758
5.72	-0.4813
5.721	-0.358054
5.722	-0.272046
5.723	-0.232966
5.724	-0.230878
5.725	-0.241349
5.726	-0.238456
5.727	-0.20802
5.728	-0.153141
5.729	-0.092044
5.73	-0.051555
5.731	-0.06394
5.732	-0.16743
5.733	-0.385205
5.734	-0.68496
5.735	-0.977015
5.736	-1.168111
5.737	-1.212885
5.738	-1.122687
5.739	-0.945161
5.74	-0.740218
5.741	-0.562462
5.742	-0.447579
5.743	-0.403378
5.744	-0.410367
5.745	-0.43266
5.746	-0.435704
5.747	-0.402619
5.748	-0.339227
5.749	-0.264289
5.75	-0.193425
5.751	-0.133577
5.752	-0.091514
5.753	-0.075579
5.754	-0.08245
5.755	-0.093446
5.756	-0.090778
5.757	-0.071875
5.758	-0.047465
5.759	-0.030465
5.76	-0.028099
5.761	-0.042979
5.762	-0.076992
5.763	-0.129631
5.764	-0.193231
5.765	-0.253106
5.766	-0.29398
5.767	-0.308385
5.768	-0.300672
5.769	-0.276486
5.77	-0.218855
5.771	-0.080665
5.772	0.182553
5.773	0.566389
5.774	1.004462
5.775	1.396768
5.776	1.65259
5.777	1.722125
5.778	1.607775
5.779	1.357235
5.78	1.045007
5.781	0.748789
5.782	0.524063
5.783	0.386039
5.784	0.3134
5.785	0.271256
5.786	0.232797
5.787	0.187027
5.788	0.135576
5.789	0.087102
5.79	0.05348
5.791	0.042081
5.792	0.044291
5.793	0.039107
5.794	0.0151
5.795	-0.01968
5.796	-0.052009
5.797	-0.076547
5.798	-0.092524
5.799	-0.094858
5.8	-0.071956
5.801	-0.012237
5.802	0.086245
5.803	0.210202
5.804	0.334482
5.805	0.433439
5.806	0.491378
5.807	0.503616
5.808	0.471765
5.809	0.401517
5.81	0.29933
5.811	0.161689
5.812	-0.031153
5.813	-0.293478
5.814	-0.59646
5.815	-0.867737
5.816	-1.037092
5.817	-1.075579
5.818	-0.997776
5.819	-0.843892
5.82	-0.665068
5.821	-0.513426
5.822	-0.426496
5.823	-0.410809
5.824	-0.440516
5.825	-0.474211
5.826	-0.476745
5.827	-0.433495
5.828	-0.353266
5.829	-0.260864
5.83	-0.187834
5.831	-0.170671
5.832	-0.247675
5.833	-0.433432
5.834	-0.686959
5.835	-0.922938
5.836	-1.064003
5.837	-1.079575
5.838	-0.985142
5.839	-0.820824
5.84	-0.633461
5.841	-0.467037
5.842	-0.354099
5.843	-0.305947
5.844	-0.308987
5.845	-0.333514
5.846	-0.350356
5.847	-0.344994
5.848	-0.320039
5.849	-0.281315
5.85	-0.212682
5.851	-0.065958
5.852	0.207003
5.853	0.605441
5.854	1.064671
5.855	1.480857
5.856	1.752873
5.857	1.822652
5.858	1.694689
5.859	1.425558
5.86	1.095229
5.861	0.776713
5.862	0.514544
5.863	0.319857
5.864	0.181958
5.865	0.084917
5.866	0.016842
5.867	-0.030086
5.868	-0.061476
5.869	-0.077676
5.87	-0.064353
5.871	0.008668
5.872	0.161715
5.873	0.37755
5.874	0.609165
5.875	0.804665
5.876	0.921089
5.877	0.934582
5.878	0.849878
5.879	0.700882
5.88	0.542281
5.881	0.43261
5.882	0.408951
5.883	0.465491
5.884	0.556459
5.885	0.626243
5.886	0.641142
5.887	0.598299
5.888	0.51408
5.889	0.407965
5.89	0.290179
5.891	0.152833
5.892	-0.028348
5.893	-0.26719
5.894	-0.53463
5.895	-0.766541
5.896	-0.905638
5.897	-0.92989
5.898	-0.852413
5.899	-0.708997
5.9	-0.546949
5.901	-0.415773
5.902	-0.351804
5.903	-0.35933
5.904	-0.406904
5.905	-0.44714
5.906	-0.443677
5.907	-0.387153
5.908	-0.296161
5.909	-0.206005
5.91	-0.153387
5.911	-0.173125
5.912	-0.300708
5.913	-0.546678
5.914	-0.860104
5.915	-1.143052
5.916	-1.308969
5.917	-1.323308
5.918	-1.203917
5.919	-1.000039
5.92	-0.770181
5.921	-0.566961
5.922	-0.426178
5.923	-0.356736
5.924	-0.338556
5.925	-0.335844
5.926	-0.319212
5.927	-0.280842
5.928	-0.233162
5.929	-0.192712
5.93	-0.156945
5.931	-0.097368
5.932	0.015175
5.933	0.183101
5.934	0.380517
5.935	0.565238
5.936	0.693842
5.937	0.738683
5.938	0.69809
5.939	0.593935
5.94	0.458538
5.941	0.319336
5.942	0.191587
5.943	0.080578
5.944	-0.011578
5.945	-0.080622
5.946	-0.122823
5.947	-0.142787
5.948	-0.153504
5.949	-0.160252
5.95	-0.137579
5.951	-0.029051
5.952	0.211143
5.953	0.569546
5.954	0.970377
5.955	1.314229
5.956	1.519358
5.957	1.54724
5.958	1.410849
5.959	1.166037
5.96	0.890469
5.961	0.657222
5.962	0.509779
5.963	0.448773
5.964	0.440992
5.965	0.444386
5.966	0.429665
5.967	0.386116
5.968	0.315989
5.969	0.230781
5.97	0.147618
5.971	0.073111
5.972	-0.011645
5.973	-0.132402
5.974	-0.282955
5.975	-0.421329
5.976	-0.505897
5.977	-0.523714
5.978	-0.487338
5.979	-0.414948
5.98	-0.315669
5.981	-0.189986
5.982	-0.041779
5.983	0.111245
5.984	0.240921
5.985	0.323369
5.986	0.3523
5.987	0.339865
5.988	0.303223
5.989	0.248202
5.99	0.165086
5.991	0.03298
5.992	-0.174046
5.993	-0.461226
5.994	-0.781705
5.995	-1.052172
5.996	-1.204932
5.997	-1.218015
5.998	-1.10956
5.999	-0.921282
6.0	-0.706875
6.001	-0.520703
6.002	-0.400318
6.003	-0.350927
6.004	-0.346197
6.005	-0.346948
6.006	-0.324861
6.007	-0.275725
6.008	-0.215382
6.009	-0.166607
6.01	-0.149094
6.011	-0.178903
6.012	-0.271857
6.013	-0.428987
6.014	-0.613525
6.015	-0.763828
6.016	-0.834396
6.017	-0.815731
6.018	-0.724317
6.019	-0.587492
6.02	-0.437595
6.021	-0.309004
6.022	-0.22835
6.023	-0.2026
6.024	-0.21623
6.025	-0.240894
6.026	-0.252697
6.027	-0.246318
6.028	-0.232681
6.029	-0.216997
6.03	-0.172446
6.031	-0.039541
6.032	0.230906
6.033	0.628097
6.034	1.075758
6.035	1.464669
6.036	1.696849
6.037	1.725861
6.038	1.571284
6.039	1.300888
6.04	0.997789
6.041	0.729533
6.042	0.529835
6.043	0.399099
6.044	0.31873
6.045	0.266366
6.046	0.224533
6.047	0.182001
6.048	0.13228
6.049	0.078113
6.05	0.041813
6.051	0.059073
6.052	0.145971
6.053	0.280629
6.054	0.423071
6.055	0.536052
6.056	0.591165
6.057	0.576058
6.058	0.50107
6.059	0.398734
6.06	0.316587
6.061	0.300851
6.062	0.371495
6.063	0.505911
6.064	0.650247
6.065	0.750684
6.066	0.777798
6.067	0.730109
6.068	0.623492
6.069	0.478486
6.07	0.312387
6.071	0.128213
6.072	-0.09447
6.073	-0.371652
6.074	-0.669997
6.075	-0.915302
6.076	-1.045887
6.077	-1.045959
6.078	-0.940984
6.079	-0.777344
6.08	-0.604644
6.081	-0.464199
6.082	-0.380034
6.083	-0.353244
6.084	-0.363574
6.085	-0.377469
6.086	-0.361845
6.087	-0.302077
6.088	-0.215131
6.089	-0.143217
6.09	-0.124955
6.091	-0.173029
6.092	-0.280389
6.093	-0.426357
6.094	-0.570412
6.095	-0.666818
6.096	-0.693717
6.097	-0.658725
6.098	-0.582665
6.099	-0.485813
6.1	-0.384323
6.101	-0.291287
6.102	-0.217368
6.103	-0.168299
6.104	-0.141115
6.105	-0.124361
6.106	-0.10485
6.107	-0.076506
6.108	-0.04334
6.109	-0.016063
6.11	-0.008713
6.111	-0.042575
6.112	-0.148076
6.113	-0.337863
6.114	-0.572479
6.115	-0.776497
6.116	-0.89105
6.117	-0.901422
6.118	-0.82855
6.119	-0.711137
6.12	-0.593612
6.121	-0.516013
6.122	-0.499831
6.123	-0.537572
6.124	-0.597026
6.125	-0.637677
6.126	-0.629547
6.127	-0.565898
6.128	-0.463242
6.129	-0.349292
6.13	-0.250644
6.131	-0.193558
6.132	-0.206485
6.133	-0.298009
6.134	-0.431997
6.135	-0.547076
6.136	-0.600756
6.137	-0.587606
6.138	-0.528478
6.139	-0.452693
6.14	-0.386519
6.141	-0.350444
6.142	-0.356969
6.143	-0.403715
6.144	-0.470251
6.145	-0.526747
6.146	-0.549522
6.147	-0.532175
6.148	-0.483631
6.149	-0.408062
6.15	-0.277281
6.151	-0.034097
6.152	0.356741
6.153	0.862159
6.154	1.38509
6.155	1.80434
6.156	2.023339
6.157	2.00569
6.158	1.780424
6.159	1.422032
6.16	1.020571
6.161	0.653779
6.162	0.367258
6.163	0.168136
6.164	0.037567
6.165	-0.04764
6.166	-0.103169
6.167	-0.138024
6.168	-0.156207
6.169	-0.151381
6.17	-0.100371
6.171	0.023689
6.172	0.218115
6.173	0.441572
6.174	0.643368
6.175	0.786067
6.176	0.84538
6.177	0.810484
6.178	0.690599
6.179	0.519147
6.18	0.34877
6.181	0.233212
6.182	0.20098
6.183	0.238777
6.184	0.302946
6.185	0.352172
6.186	0.37011
6.187	0.35912
6.188	0.322999
6.189	0.263856
6.19	0.185336
6.191	0.082567
6.192	-0.064991
6.193	-0.267553
6.194	-0.492168
6.195	-0.676611
6.196	-0.774538
6.197	-0.778231
6.198	-0.710189
6.199	-0.607119
6.2	-0.510911
6.201	-0.46085
6.202	-0.477789
6.203	-0.549687
6.204	-0.63552
6.205	-0.687875
6.206	-0.676901
6.207	-0.601153
6.208	-0.483716
6.209	-0.359126
6.21	-0.264064
6.211	-0.240035
6.212	-0.327519
6.213	-0.52965
6.214	-0.784056
6.215	-0.995337
6.216	-1.096574
6.217	-1.076201
6.218	-0.96383
6.219	-0.805094
6.22	-0.645761
6.221	-0.523773
6.222	-0.46098
6.223	-0.45528
6.224	-0.481541
6.225	-0.505446
6.226	-0.502032
6.227	-0.466181
6.228	-0.407662
6.229	-0.332227
6.23	-0.221575
6.231	-0.038144
6.232	0.237013
6.233	0.576783
6.234	0.920451
6.235	1.197532
6.236	1.347364
6.237	1.34073
6.238	1.191741
6.239	0.948785
6.24	0.671914
6.241	0.41018
6.242	0.188911
6.243	0.012529
6.244	-0.122154
6.245	-0.216211
6.246	-0.270064
6.247	-0.289074
6.248	-0.280453
6.249	-0.239641
6.25	-0.137623
6.251	0.068163
6.252	0.391642
6.253	0.789398
6.254	1.179893
6.255	1.477765
6.256	1.617796
6.257	1.575492
6.258	1.376518
6.259	1.086599
6.26	0.788798
6.261	0.554432
6.262	0.416594
6.263	0.36204
6.264	0.348545
6.265	0.335438
6.266	0.30419
6.267	0.257811
6.268	0.208818
6.269	0.168694
6.27	0.139064
6.271	0.100541
6.272	0.014842
6.273	-0.138735
6.274	-0.327733
6.275	-0.487506
6.276	-0.572772
6.277	-0.578974
6.278	-0.528128
6.279	-0.446895
6.28	-0.35644
6.281	-0.274709
6.282	-0.216953
6.283	-0.187952
6.284	-0.177068
6.285	-0.165293
6.286	-0.137818
6.287	-0.092266
6.288	-0.040055
6.289	-0.001782
6.29	-0.001426
6.291	-0.067398
6.292	-0.227435
6.293	-0.476456
6.294	-0.752833
6.295	-0.970408
6.296	-1.07221
6.297	-1.050453
6.298	-0.934469
6.299	-0.772333
6.3	-0.616208
6.301	-0.50885
6.302	-0.470292
6.303	-0.49013
6.304	-0.53278
6.305	-0.555961
6.306	-0.532191
6.307	-0.460036
6.308	-0.359559
6.309	-0.257598
6.31	-0.173233
6.311	-0.116783
6.312	-0.097818
6.313	-0.116829
6.314	-0.152532
6.315	-0.176444
6.316	-0.176186
6.317	-0.158205
6.318	-0.136355
6.319	-0.122449
6.32	-0.125094
6.321	-0.152095
6.322	-0.207365
6.323	-0.284104
6.324	-0.363294
6.325	-0.420343
6.326	-0.437753
6.327	-0.415561
6.328	-0.366623
6.329	-0.293562
6.33	-0.165282
6.331	0.073062
6.332	0.449605
6.333	0.923363
6.334	1.393867
6.335	1.748049
6.336	1.90659
6.337	1.848662
6.338	1.611031
6.339	1.268557
6.34	0.906581
6.341	0.594005
6.342	0.365109
6.343	0.217378
6.344	0.126727
6.345	0.068701
6.346	0.029617
6.347	0.00406
6.348	-0.010374
6.349	-0.010064
6.35	0.016226
6.351	0.070723
6.352	0.130725
6.353	0.166163
6.354	0.169819
6.355	0.155648
6.356	0.1347
6.357	0.105102
6.358	0.062794
6.359	0.01733
6.36	-0.004021
6.361	0.028257
6.362	0.119868
6.363	0.243219
6.364	0.358843
6.365	0.440889
6.366	0.480791
6.367	0.478332
6.368	0.435827
6.369	0.358619
6.37	0.252517
6.371	0.110958
6.372	-0.085206
6.373	-0.33471
6.374	-0.590002
6.375	-0.783191
6.376	-0.872282
6.377	-0.857332
6.378	-0.767636
6.379	-0.645957
6.38	-0.539323
6.381	-0.487446
6.382	-0.505545
6.383	-0.574284
6.384	-0.64882
6.385	-0.682717
6.386	-0.650774
6.387	-0.557417
6.388	-0.428469
6.389	-0.298562
6.39	-0.207674
6.391	-0.201585
6.392	-0.315297
6.393	-0.536456
6.394	-0.791306
6.395	-0.986195
6.396	-1.064583
6.397	-1.025375
6.398	-0.904006
6.399	-0.747527
6.4	-0.601126
6.401	-0.500874
6.402	-0.463428
6.403	-0.478917
6.404	-0.517343
6.405	-0.544559
6.406	-0.537989
6.407	-0.494932
6.408	-0.424967
6.409	-0.327152
6.41	-0.172811
6.411	0.08076
6.412	0.448485
6.413	0.889054
6.414	1.317557
6.415	1.639379
6.416	1.78344
6.417	1.727243
6.418	1.501731
6.419	1.173723
6.42	0.818412
6.421	0.493928
6.422	0.22844
6.423	0.02562
6.424	-0.12052
6.425	-0.216168
6.426	-0.266661
6.427	-0.277845
6.428	-0.254005
6.429	-0.188776
6.43	-0.05656
6.431	0.172819
6.432	0.497246
6.433	0.867515
6.434	1.209446
6.435	1.450208
6.436	1.537996
6.437	1.4592
6.438	1.243737
6.439	0.955777
6.44	0.674389
6.441	0.466015
6.442	0.356912
6.443	0.325582
6.444	0.325099
6.445	0.316358
6.446	0.286145
6.447	0.243998
6.448	0.207683
6.449	0.187204
6.45	0.173487
6.451	0.134114
6.452	0.027773
6.453	-0.154518
6.454	-0.364902
6.455	-0.532057
6.456	-0.612203
6.457	-0.604263
6.458	-0.534903
6.459	-0.442639
6.46	-0.369478
6.461	-0.350404
6.462	-0.396854
6.463	-0.487016
6.464	-0.575789
6.465	-0.617931
6.466	-0.588391
6.467	-0.490565
6.468	-0.351762
6.469	-0.212463
6.47	-0.118908
6.471	-0.119889
6.472	-0.248755
6.473	-0.486988
6.474	-0.755123
6.475	-0.957918
6.476	-1.039076
6.477	-0.998099
6.478	-0.873722
6.479	-0.71979
6.48	-0.587627
6.481	-0.513861
6.482	-0.508909
6.483	-0.552882
6.484	-0.606619
6.485	-0.630688
6.486	-0.601409
6.487	-0.518279
6.488	-0.400107
6.489	-0.270324
6.49	-0.14366
6.491	-0.029193
6.492	0.062587
6.493	0.127387
6.494	0.173374
6.495	0.209688
6.496	0.234408
6.497	0.237094
6.498	0.20835
6.499	0.146009
6.5	0.054369
6.501	-0.060084
6.502	-0.189272
6.503	-0.319597
6.504	-0.430607
6.505	-0.501312
6.506	-0.519676
6.507	-0.487148
6.508	-0.413004
6.509	-0.29555
6.51	-0.105217
6.511	0.198175
6.512	0.618129
6.513	1.096254
6.514	1.534134
6.515	1.835683
6.516	1.942745
6.517	1.852339
6.518	1.611226
6.519	1.292625
6.52	0.966414
6.521	0.677554
6.522	0.443431
6.523	0.265331
6.524	0.138993
6.525	0.056856
6.526	0.006667
6.527	-0.027689
6.528	-0.060122
6.529	-0.087043
6.53	-0.072451
6.531	0.035998
6.532	0.260633
6.533	0.567675
6.534	0.883142
6.535	1.125992
6.536	1.240631
6.537	1.216605
6.538	1.085887
6.539	0.90524
6.54	0.734717
6.541	0.617405
6.542	0.565311
6.543	0.559841
6.544	0.569604
6.545	0.571011
6.546	0.552591
6.547	0.505052
6.548	0.418718
6.549	0.29878
6.55	0.178803
6.551	0.103587
6.552	0.093272
6.553	0.132945
6.554	0.191063
6.555	0.237616
6.556	0.254989
6.557	0.244295
6.558	0.22507
6.559	0.229004
6.56	0.28795
6.561	0.417557
6.562	0.605048
6.563	0.811255
6.564	0.987033
6.565	1.093114
6.566	1.110507
6.567	1.037417
6.568	0.882027
6.569	0.659777
6.57	0.386621
6.571	0.065373
6.572	-0.30692
6.573	-0.703789
6.574	-1.056117
6.575	-1.287423
6.576	-1.356783
6.577	-1.270796
6.578	-1.069373
6.579	-0.805855
6.58	-0.533894
6.581	-0.298693
6.582	-0.126064
6.583	-0.015607
6.584	0.052515
6.585	0.100656
6.586	0.139771
6.587	0.165758
6.588	0.163273
6.589	0.112854
6.59	-0.008789
6.591	-0.232748
6.592	-0.575387
6.593	-0.994673
6.594	-1.387102
6.595	-1.643921
6.596	-1.708821
6.597	-1.59054
6.598	-1.340061
6.599	-1.022725
6.6	-0.701185
6.601	-0.424965
6.602	-0.220829
6.603	-0.08894
6.604	-0.010092
6.605	0.038702
6.606	0.069825
6.607	0.08109
6.608	0.064767
6.609	0.023882
6.61	-0.019747
6.611	-0.039206
6.612	-0.023942
6.613	0.018846
6.614	0.0769
6.615	0.136428
6.616	0.181589
6.617	0.201887
6.618	0.200263
6.619	0.190926
6.62	0.188426
6.621	0.198236
6.622	0.215123
6.623	0.228888
6.624	0.231808
6.625	0.221099
6.626	0.194895
6.627	0.149007
6.628	0.085882
6.629	0.031232
6.63	0.036651
6.631	0.15306
6.632	0.389147
6.633	0.695741
6.634	0.991142
6.635	1.197905
6.636	1.268561
6.637	1.199479
6.638	1.030347
6.639	0.828562
6.64	0.66485
6.641	0.586167
6.642	0.596351
6.643	0.658442
6.644	0.718679
6.645	0.735342
6.646	0.693296
6.647	0.599578
6.648	0.47249
6.649	0.332507
6.65	0.189269
6.651	0.029381
6.652	-0.169845
6.653	-0.402566
6.654	-0.621541
6.655	-0.771382
6.656	-0.824136
6.657	-0.781959
6.658	-0.661165
6.659	-0.480896
6.66	-0.261066
6.661	-0.024263
6.662	0.203808
6.663	0.397944
6.664	0.539792
6.665	0.621161
6.666	0.641693
6.667	0.605302
6.668	0.51691
6.669	0.378156
6.67	0.182376
6.671	-0.086395
6.672	-0.433888
6.673	-0.821434
6.674	-1.165291
6.675	-1.38298
6.676	-1.436019
6.677	-1.334626
6.678	-1.120725
6.679	-0.852777
6.68	-0.592829
6.681	-0.388988
6.682	-0.260567
6.683	-0.196433
6.684	-0.166486
6.685	-0.139703
6.686	-0.100412
6.687	-0.053943
6.688	-0.020262
6.689	-0.024562
6.69	-0.092087
6.691	-0.244771
6.692	-0.485503
6.693	-0.773181
6.694	-1.028321
6.695	-1.177701
6.696	-1.190998
6.697	-1.081886
6.698	-0.889142
6.699	-0.659004
6.7	-0.435548
6.701	-0.254427
6.702	-0.135274
6.703	-0.076332
6.704	-0.058445
6.705	-0.05758
6.706	-0.058636
6.707	-0.061699
6.708	-0.071811
6.709	-0.073944
6.71	-0.01816
6.711	0.154551
6.712	0.460861
6.713	0.849854
6.714	1.22349
6.715	1.482446
6.716	1.568872
6.717	1.484088
6.718	1.278182
6.719	1.024871
6.72	0.79391
6.721	0.628024
6.722	0.533196
6.723	0.487288
6.724	0.459625
6.725	0.427236
6.726	0.379038
6.727	0.31164
6.728	0.228351
6.729	0.147979
6.73	0.10518
6.731	0.12365
6.732	0.19305
6.733	0.28164
6.734	0.358832
6.735	0.401853
6.736	0.398588
6.737	0.35479
6.738	0.296552
6.739	0.26233
6.74	0.287067
6.741	0.384576
6.742	0.537776
6.743	0.705781
6.744	0.844297
6.745	0.922026
6.746	0.923812
6.747	0.846775
6.748	0.69704
6.749	0.489845
6.75	0.242231
6.751	-0.043174
6.752	-0.36905
6.753	-0.706877
6.754	-0.990968
6.755	-1.15825
6.756	-1.183762
6.757	-1.083061
6.758	-0.896407
6.759	-0.675529
6.76	-0.474924
6.761	-0.33718
6.762	-0.275145
6.763	-0.267247
6.764	-0.273037
6.765	-0.258468
6.766	-0.213788
6.767	-0.154689
6.768	-0.109049
6.769	-0.104002
6.77	-0.168471
6.771	-0.336109
6.772	-0.617541
6.773	-0.962546
6.774	-1.271154
6.775	-1.45181
6.776	-1.466611
6.777	-1.333404
6.778	-1.101701
6.779	-0.829444
6.78	-0.571414
6.781	-0.370504
6.782	-0.245043
6.783	-0.183405
6.784	-0.156716
6.785	-0.139367
6.786	-0.121774
6.787	-0.110865
6.788	-0.114958
6.789	-0.119721
6.79	-0.083304
6.791	0.035199
6.792	0.242056
6.793	0.501698
6.794	0.753362
6.795	0.935049
6.796	1.006547
6.797	0.963939
6.798	0.837329
6.799	0.673815
6.8	0.516652
6.801	0.390317
6.802	0.298152
6.803	0.231869
6.804	0.181809
6.805	0.139401
6.806	0.095507
6.807	0.042987
6.808	-0.013351
6.809	-0.044781
6.81	-0.00155
6.811	0.155029
6.812	0.415706
6.813	0.722845
6.814	0.999807
6.815	1.179159
6.816	1.223409
6.817	1.137221
6.818	0.964495
6.819	0.772104
6.82	0.626487
6.821	0.568176
6.822	0.593839
6.823	0.660473
6.824	0.713943
6.825	0.720059
6.826	0.674023
6.827	0.58737
6.828	0.469743
6.829	0.32304
6.83	0.145746
6.831	-0.067301
6.832	-0.31671
6.833	-0.575698
6.834	-0.791391
6.835	-0.917607
6.836	-0.937859
6.837	-0.86156
6.838	-0.709851
6.839	-0.507897
6.84	-0.283619
6.841	-0.064563
6.842	0.126913
6.843	0.276222
6.844	0.376873
6.845	0.429289
6.846	0.437117
6.847	0.402677
6.848	0.325605
6.849	0.202964
6.85	0.024884
6.851	-0.226694
6.852	-0.553643
6.853	-0.908406
6.854	-1.20532
6.855	-1.371471
6.856	-1.380985
6.857	-1.25259
6.858	-1.031353
6.859	-0.773532
6.86	-0.534417
6.861	-0.35392
6.862	-0.244572
6.863	-0.1917
6.864	-0.166917
6.865	-0.145953
6.866	-0.120865
6.867	-0.100633
6.868	-0.100762
6.869	-0.127274
6.87	-0.170647
6.871	-0.21919
6.872	-0.266432
6.873	-0.301041
6.874	-0.308205
6.875	-0.284304
6.876	-0.238693
6.877	-0.182707
6.878	-0.123542
6.879	-0.067096
6.88	-0.022184
6.881	2.5e-05
6.882	-0.007026
6.883	-0.037697
6.884	-0.075349
6.885	-0.104193
6.886	-0.121719
6.887	-0.138344
6.888	-0.160557
6.889	-0.165177
6.89	-0.092151
6.891	0.116092
6.892	0.460216
6.893	0.872314
6.894	1.247632
6.895	1.489618
6.896	1.548929
6.897	1.438061
6.898	1.216973
6.899	0.963829
6.9	0.745755
6.901	0.599062
6.902	0.523475
6.903	0.492204
6.904	0.472698
6.905	0.442225
6.906	0.389121
6.907	0.308542
6.908	0.204835
6.909	0.097205
6.91	0.009675
6.911	-0.053256
6.912	-0.107448
6.913	-0.160834
6.914	-0.202359
6.915	-0.219511
6.916	-0.211633
6.917	-0.185286
6.918	-0.140844
6.919	-0.063637
6.92	0.068581
6.921	0.262803
6.922	0.492651
6.923	0.705497
6.924	0.849195
6.925	0.895153
6.926	0.843995
6.927	0.715509
6.928	0.536038
6.929	0.330634
6.93	0.108047
6.931	-0.150533
6.932	-0.460555
6.933	-0.786658
6.934	-1.050469
6.935	-1.185886
6.936	-1.175547
6.937	-1.04546
6.938	-0.841687
6.939	-0.615379
6.94	-0.420269
6.941	-0.304579
6.942	-0.287855
6.943	-0.344357
6.944	-0.416859
6.945	-0.451901
6.946	-0.427523
6.947	-0.356762
6.948	-0.270448
6.949	-0.19525
6.95	-0.148894
6.951	-0.151278
6.952	-0.21538
6.953	-0.320931
6.954	-0.42103
6.955	-0.47749
6.956	-0.479058
6.957	-0.435056
6.958	-0.363452
6.959	-0.283663
6.96	-0.214231
6.961	-0.170653
6.962	-0.159443
6.963	-0.172835
6.964	-0.191745
6.965	-0.197253
6.966	-0.181972
6.967	-0.153117
6.968	-0.127252
6.969	-0.1223
6.97	-0.159577
6.971	-0.269219
6.972	-0.464077
6.973	-0.702235
6.974	-0.902739
6.975	-1.001617
6.976	-0.983874
6.977	-0.875693
6.978	-0.721668
6.979	-0.56777
6.98	-0.452621
6.981	-0.399084
6.982	-0.406309
6.983	-0.450426
6.984	-0.495875
6.985	-0.512815
6.986	-0.491235
6.987	-0.44163
6.988	-0.381604
6.989	-0.318816
6.99	-0.249167
6.991	-0.173046
6.992	-0.099689
6.993	-0.031996
6.994	0.035098
6.995	0.099438
6.996	0.147599
6.997	0.165802
6.998	0.150436
6.999	0.107669
7.0	0.044749
7.001	-0.034905
7.002	-0.128162
7.003	-0.226093
7.004	-0.313099
7.005	-0.37433
7.006	-0.405635
7.007	-0.413689
7.008	-0.397286
7.009	-0.323887
7.01	-0.135736
7.011	0.204427
7.012	0.669641
7.013	1.170458
7.014	1.593692
7.015	1.846002
7.016	1.883815
7.017	1.722685
7.018	1.426269
7.019	1.081563
7.02	0.769403
7.021	0.537708
7.022	0.389811
7.023	0.297362
7.024	0.226116
7.025	0.154838
7.026	0.079053
7.027	0.004935
7.028	-0.053829
7.029	-0.076801
7.03	-0.052137
7.031	0.001628
7.032	0.047725
7.033	0.069812
7.034	0.078661
7.035	0.085171
7.036	0.087558
7.037	0.082454
7.038	0.076043
7.039	0.082278
7.04	0.112562
7.041	0.166158
7.042	0.229281
7.043	0.283576
7.044	0.315603
7.045	0.319547
7.046	0.294418
7.047	0.242731
7.048	0.170386
7.049	0.081487
7.05	-0.032533
7.051	-0.194857
7.052	-0.414593
7.053	-0.652613
7.054	-0.837621
7.055	-0.917341
7.056	-0.884352
7.057	-0.76554
7.058	-0.603348
7.059	-0.445971
7.06	-0.339108
7.061	-0.309442
7.062	-0.350911
7.063	-0.429032
7.064	-0.499555
7.065	-0.528484
7.066	-0.504865
7.067	-0.440788
7.068	-0.361681
7.069	-0.299756
7.07	-0.294911
7.071	-0.386497
7.072	-0.57898
7.073	-0.813806
7.074	-0.998638
7.075	-1.067998
7.076	-1.011309
7.077	-0.860023
7.078	-0.662669
7.079	-0.467916
7.08	-0.316614
7.081	-0.234357
7.082	-0.223891
7.083	-0.265095
7.084	-0.325929
7.085	-0.377623
7.086	-0.405122
7.087	-0.406943
7.088	-0.380684
7.089	-0.301278
7.09	-0.120526
7.091	0.194201
7.092	0.620936
7.093	1.084421
7.094	1.484067
7.095	1.730359
7.096	1.77939
7.097	1.645476
7.098	1.38695
7.099	1.078867
7.1	0.785709
7.101	0.54248
7.102	0.35265
7.103	0.202529
7.104	0.078103
7.105	-0.027249
7.106	-0.114063
7.107	-0.179428
7.108	-0.212666
7.109	-0.184313
7.11	-0.05226
7.111	0.200169
7.112	0.538166
7.113	0.892417
7.114	1.185959
7.115	1.354579
7.116	1.369912
7.117	1.252134
7.118	1.059086
7.119	0.859826
7.12	0.707694
7.121	0.623601
7.122	0.595172
7.123	0.591026
7.124	0.580728
7.125	0.546538
7.126	0.482485
7.127	0.38879
7.128	0.269221
7.129	0.131264
7.13	-0.02142
7.131	-0.198841
7.132	-0.405705
7.133	-0.610117
7.134	-0.755117
7.135	-0.800805
7.136	-0.744766
7.137	-0.613767
7.138	-0.448965
7.139	-0.296714
7.14	-0.200018
7.141	-0.18301
7.142	-0.237813
7.143	-0.328466
7.144	-0.409989
7.145	-0.44979
7.146	-0.440133
7.147	-0.397014
7.148	-0.348537
7.149	-0.324833
7.15	-0.360675
7.151	-0.491695
7.152	-0.71826
7.153	-0.97589
7.154	-1.167575
7.155	-1.226046
7.156	-1.142303
7.157	-0.953849
7.158	-0.718638
7.159	-0.494048
7.16	-0.325474
7.161	-0.23798
7.162	-0.229081
7.163	-0.271026
7.164	-0.326673
7.165	-0.368247
7.166	-0.386444
7.167	-0.38754
7.168	-0.378293
7.169	-0.347417
7.17	-0.269622
7.171	-0.133735
7.172	0.045305
7.173	0.240704
7.174	0.423227
7.175	0.562893
7.176	0.637428
7.177	0.641641
7.178	0.587503
7.179	0.495338
7.18	0.383463
7.181	0.262161
7.182	0.135398
7.183	0.008423
7.184	-0.108999
7.185	-0.208353
7.186	-0.288277
7.187	-0.349925
7.188	-0.380704
7.189	-0.339621
7.19	-0.169991
7.191	0.153962
7.192	0.591801
7.193	1.052134
7.194	1.433828
7.195	1.659874
7.196	1.698795
7.197	1.570342
7.198	1.333849
7.199	1.065885
7.2	0.833912
7.201	0.672677
7.202	0.574801
7.203	0.504493
7.204	0.42619
7.205	0.325898
7.206	0.211154
7.207	0.096475
7.208	-0.007523
7.209	-0.091617
7.21	-0.146237
7.211	-0.17228
7.212	-0.180959
7.213	-0.17604
7.214	-0.15168
7.215	-0.106918
7.216	-0.04923
7.217	0.014064
7.218	0.081917
7.219	0.156395
7.22	0.234913
7.221	0.307302
7.222	0.359942
7.223	0.381698
7.224	0.367221
7.225	0.317578
7.226	0.238651
7.227	0.138413
7.228	0.024586
7.229	-0.101031
7.23	-0.252068
7.231	-0.452198
7.232	-0.699633
7.233	-0.940452
7.234	-1.097493
7.235	-1.122627
7.236	-1.016754
7.237	-0.816737
7.238	-0.576436
7.239	-0.354502
7.24	-0.202006
7.241	-0.145499
7.242	-0.17658
7.243	-0.258853
7.244	-0.348197
7.245	-0.41271
7.246	-0.441804
7.247	-0.442798
7.248	-0.432622
7.249	-0.432444
7.25	-0.467341
7.251	-0.560345
7.252	-0.705878
7.253	-0.851838
7.254	-0.929714
7.255	-0.9014
7.256	-0.772968
7.257	-0.578617
7.258	-0.362611
7.259	-0.169637
7.26	-0.03732
7.261	0.012708
7.262	-0.018405
7.263	-0.107714
7.264	-0.221208
7.265	-0.329542
7.266	-0.418566
7.267	-0.484311
7.268	-0.513613
7.269	-0.465377
7.27	-0.279455
7.271	0.076214
7.272	0.564547
7.273	1.088184
7.274	1.530817
7.275	1.800732
7.276	1.862591
7.277	1.742488
7.278	1.506304
7.279	1.228353
7.28	0.964428
7.281	0.738899
7.282	0.54883
7.283	0.378668
7.284	0.21578
7.285	0.057535
7.286	-0.091588
7.287	-0.223092
7.288	-0.319302
7.289	-0.348426
7.29	-0.280286
7.291	-0.116103
7.292	0.107461
7.293	0.34347
7.294	0.551092
7.295	0.698409
7.296	0.768831
7.297	0.767738
7.298	0.723051
7.299	0.677939
7.3	0.67141
7.301	0.712856
7.302	0.771986
7.303	0.797668
7.304	0.750359
7.305	0.622026
7.306	0.434386
7.307	0.222714
7.308	0.018837
7.309	-0.160014
7.31	-0.322172
7.311	-0.497841
7.312	-0.698266
7.313	-0.88086
7.314	-0.976494
7.315	-0.944175
7.316	-0.792249
7.317	-0.564145
7.318	-0.31554
7.319	-0.099526
7.32	0.040993
7.321	0.083091
7.322	0.033927
7.323	-0.072059
7.324	-0.191601
7.325	-0.29385
7.326	-0.369932
7.327	-0.427722
7.328	-0.481753
7.329	-0.549738
7.33	-0.65696
7.331	-0.827692
7.332	-1.049996
7.333	-1.256748
7.334	-1.362369
7.335	-1.317082
7.336	-1.126902
7.337	-0.839168
7.338	-0.518618
7.339	-0.230134
7.34	-0.026763
7.341	0.063843
7.342	0.047898
7.343	-0.041913
7.344	-0.165319
7.345	-0.292216
7.346	-0.410572
7.347	-0.51849
7.348	-0.602027
7.349	-0.619162
7.35	-0.514779
7.351	-0.261406
7.352	0.112047
7.353	0.530005
7.354	0.904807
7.355	1.169439
7.356	1.295864
7.357	1.295267
7.358	1.202921
7.359	1.057301
7.36	0.884498
7.361	0.694877
7.362	0.490809
7.363	0.2772
7.364	0.066368
7.365	-0.123763
7.366	-0.276727
7.367	-0.389839
7.368	-0.478803
7.369	-0.563332
7.37	-0.654143
7.371	-0.752569
7.372	-0.841429
7.373	-0.878227
7.374	-0.820538
7.375	-0.660041
7.376	-0.428197
7.377	-0.178308
7.378	0.035654
7.379	0.171852
7.38	0.204526
7.381	0.127366
7.382	-0.042922
7.383	-0.269914
7.384	-0.508553
7.385	-0.719266
7.386	-0.877506
7.387	-0.969543
7.388	-0.97223
7.389	-0.83711
7.39	-0.510654
7.391	0.015558
7.392	0.673976
7.393	1.339462
7.394	1.879538
7.395	2.202864
7.396	2.2823
7.397	2.149049
7.398	1.869823
7.399	1.519974
7.4	1.160764
7.401	0.8249
7.402	0.515983
7.403	0.22378
7.404	-0.057633
7.405	-0.322008
7.406	-0.553001
7.407	-0.727759
7.408	-0.814387
7.409	-0.773309
7.41	-0.581761
7.411	-0.264299
7.412	0.11393
7.413	0.484318
7.414	0.795687
7.415	1.013688
7.416	1.123178
7.417	1.134541
7.418	1.078833
7.419	0.99081
7.42	0.893421
7.421	0.790764
7.422	0.671278
7.423	0.520818
7.424	0.33469
7.425	0.119686
7.426	-0.109026
7.427	-0.328375
7.428	-0.509126
7.429	-0.630065
7.43	-0.697717
7.431	-0.741873
7.432	-0.778994
7.433	-0.787185
7.434	-0.727283
7.435	-0.580594
7.436	-0.362556
7.437	-0.11368
7.438	0.112006
7.439	0.255534
7.44	0.26842
7.441	0.1361
7.442	-0.110317
7.443	-0.408694
7.444	-0.694559
7.445	-0.923245
7.446	-1.076745
7.447	-1.15567
7.448	-1.167665
7.449	-1.130032
7.45	-1.080087
7.451	-1.060351
7.452	-1.076893
7.453	-1.082794
7.454	-1.015196
7.455	-0.84294
7.456	-0.580357
7.457	-0.2737
7.458	0.016698
7.459	0.229947
7.46	0.31765
7.461	0.259533
7.462	0.072975
7.463	-0.194887
7.464	-0.489282
7.465	-0.767657
7.466	-1.00408
7.467	-1.177334
7.468	-1.251673
7.469	-1.169191
7.47	-0.875345
7.471	-0.367595
7.472	0.282085
7.473	0.952758
7.474	1.520224
7.475	1.898019
7.476	2.059877
7.477	2.032769
7.478	1.868826
7.479	1.617239
7.48	1.309749
7.481	0.960957
7.482	0.579611
7.483	0.180838
7.484	-0.212925
7.485	-0.579827
7.486	-0.900915
7.487	-1.150027
7.488	-1.280077
7.489	-1.224189
7.49	-0.929309
7.491	-0.406641
7.492	0.254573
7.493	0.924433
7.494	1.481107
7.495	1.846584
7.496	2.003605
7.497	1.986615
7.498	1.855444
7.499	1.669007
7.5	1.465427
7.501	1.251824
7.502	1.01056
7.503	0.719428
7.504	0.371557
7.505	-0.01705
7.506	-0.411044
7.507	-0.761912
7.508	-1.017016
7.509	-1.138879
7.51	-1.130136
7.511	-1.034459
7.512	-0.898189
7.513	-0.735587
7.514	-0.53712
7.515	-0.295544
7.516	-0.016437
7.517	0.280212
7.518	0.555009
7.519	0.749628
7.52	0.805481
7.521	0.694709
7.522	0.43833
7.523	0.094092
7.524	-0.274869
7.525	-0.625543
7.526	-0.93837
7.527	-1.201109
7.528	-1.392472
7.529	-1.488209
7.53	-1.488218
7.531	-1.423248
7.532	-1.321482
7.533	-1.181316
7.534	-0.982961
7.535	-0.711543
7.536	-0.368989
7.537	0.017205
7.538	0.387257
7.539	0.658058
7.54	0.753479
7.541	0.642162
7.542	0.355355
7.543	-0.031847
7.544	-0.442474
7.545	-0.829865
7.546	-1.177284
7.547	-1.471616
7.548	-1.676892
7.549	-1.735372
7.55	-1.605413
7.551	-1.300063
7.552	-0.882094
7.553	-0.428778
7.554	-0.002184
7.555	0.367911
7.556	0.68383
7.557	0.956116
7.558	1.172202
7.559	1.286161
7.56	1.24244
7.561	1.015313
7.562	0.631402
7.563	0.157725
7.564	-0.336043
7.565	-0.810772
7.566	-1.255621
7.567	-1.648435
7.568	-1.912906
7.569	-1.920485
7.57	-1.559095
7.571	-0.826202
7.572	0.136695
7.573	1.103693
7.574	1.872698
7.575	2.34806
7.576	2.551672
7.577	2.568812
7.578	2.47637
7.579	2.303463
7.58	2.040865
7.581	1.676502
7.582	1.221665
7.583	0.70986
7.584	0.175084
7.585	-0.366886
7.586	-0.910775
7.587	-1.425908
7.588	-1.824794
7.589	-1.985277
7.59	-1.829611
7.591	-1.3894
7.592	-0.792859
7.593	-0.193492
7.594	0.301823
7.595	0.669449
7.596	0.956495
7.597	1.225653
7.598	1.494661
7.599	1.715931
7.6	1.809309
7.601	1.719228
7.602	1.450904
7.603	1.057342
7.604	0.590584
7.605	0.066034
7.606	-0.522275
7.607	-1.147274
7.608	-1.709183
7.609	-2.064975
7.61	-2.11885
7.611	-1.889053
7.612	-1.488092
7.613	-1.047914
7.614	-0.650712
7.615	-0.296024
7.616	0.077338
7.617	0.517853
7.618	0.986271
7.619	1.345771
7.62	1.439562
7.621	1.199542
7.622	0.69468
7.623	0.078704
7.624	-0.51712
7.625	-1.056076
7.626	-1.574834
7.627	-2.092258
7.628	-2.536869
7.629	-2.769277
7.63	-2.686132
7.631	-2.30728
7.632	-1.765772
7.633	-1.221926
7.634	-0.771825
7.635	-0.399974
7.636	-0.008218
7.637	0.485324
7.638	1.046524
7.639	1.511611
7.64	1.684358
7.641	1.471735
7.642	0.946442
7.643	0.2846
7.644	-0.366647
7.645	-0.978417
7.646	-1.609325
7.647	-2.276752
7.648	-2.842773
7.649	-3.031792
7.65	-2.598338
7.651	-1.527023
7.652	-0.093495
7.653	1.276656
7.654	2.247174
7.655	2.737698
7.656	2.908659
7.657	2.988069
7.658	3.080763
7.659	3.105834
7.66	2.895087
7.661	2.358383
7.662	1.573943
7.663	0.727422
7.664	-0.041037
7.665	-0.739296
7.666	-1.47612
7.667	-2.295366
7.668	-3.035027
7.669	-3.357826
7.67	-2.969895
7.671	-1.862692
7.672	-0.368435
7.673	1.022104
7.674	1.945254
7.675	2.355369
7.676	2.489595
7.677	2.639732
7.678	2.915066
7.679	3.178041
7.68	3.183846
7.681	2.794109
7.682	2.087881
7.683	1.284197
7.684	0.548617
7.685	-0.141256
7.686	-0.942311
7.687	-1.939757
7.688	-2.967237
7.689	-3.638201
7.69	-3.605324
7.691	-2.8375
7.692	-1.671523
7.693	-0.599156
7.694	0.05054
7.695	0.31122
7.696	0.510265
7.697	0.974508
7.698	1.745389
7.699	2.539599
7.7	2.974926
7.701	2.85356
7.702	2.289881
7.703	1.63257
7.704	1.27969
7.705	1.536211
7.706	2.503579
7.707	3.905328
7.708	5.140126
7.709	5.758522
7.71	5.681515
7.711	4.862476
7.712	3.241883
7.713	1.136177
7.714	-0.804933
7.715	-2.152688
7.716	-3.026289
7.717	-3.796741
7.718	-4.578014
7.719	-5.1904
7.72	-5.419697
7.721	-5.04422
7.722	-3.932294
7.723	-2.314334
7.724	-0.646243
7.725	0.856129
7.726	2.300943
7.727	3.694918
7.728	4.723912
7.729	5.140581
7.73	4.991635
7.731	4.275565
7.732	2.892141
7.733	1.064791
7.734	-0.647716
7.735	-1.867553
7.736	-2.733551
7.737	-3.633004
7.738	-4.635734
7.739	-5.376043
7.74	-5.474963
7.741	-4.822197
7.742	-3.553837
7.743	-2.007501
7.744	-0.546627
7.745	0.732749
7.746	1.986317
7.747	3.216079
7.748	4.102449
7.749	4.422764
7.75	4.272042
7.751	3.680619
7.752	2.530088
7.753	0.968448
7.754	-0.550123
7.755	-1.704973
7.756	-2.585649
7.757	-3.469036
7.758	-4.362596
7.759	-4.936546
7.76	-4.907003
7.761	-4.250338
7.762	-3.120381
7.763	-1.785115
7.764	-0.507972
7.765	0.662936
7.766	1.853062
7.767	3.000045
7.768	3.751424
7.769	3.9189
7.77	3.678098
7.771	3.124211
7.772	2.139827
7.773	0.814573
7.774	-0.458404
7.775	-1.367577
7.776	-1.986926
7.777	-2.628392
7.778	-3.37874
7.779	-3.944229
7.78	-4.014175
7.781	-3.536608
7.782	-2.645665
7.783	-1.57265
7.784	-0.549537
7.785	0.382358
7.786	1.359871
7.787	2.349988
7.788	3.013527
7.789	3.155679
7.79	2.966383
7.791	2.568973
7.792	1.830567
7.793	0.758093
7.794	-0.361372
7.795	-1.27166
7.796	-2.009726
7.797	-2.789466
7.798	-3.621792
7.799	-4.183522
7.8	-4.141148
7.801	-3.476658
7.802	-2.449864
7.803	-1.370542
7.804	-0.420657
7.805	0.435181
7.806	1.342145
7.807	2.221464
7.808	2.71479
7.809	2.684591
7.81	2.414516
7.811	2.08073
7.812	1.522864
7.813	0.673177
7.814	-0.221185
7.815	-0.873471
7.816	-1.286435
7.817	-1.727098
