time_s	mv
0.0	0.000927
0.001	0.009611
0.002	0.015241
0.003	0.019163
0.004	0.021682
0.005	0.022721
0.006	0.022638
0.007	0.022292
0.008	0.02254
0.009	0.023637
0.01	0.024856
0.011	0.02437
0.012	0.020287
0.013	0.01296
0.014	0.00489
0.015	-0.002274
0.016	-0.008355
0.017	-0.01273
0.018	-0.014097
0.019	-0.01197
0.02	-0.007287
0.021	-0.001267
0.022	0.005592
0.023	0.012771
0.024	0.018742
0.025	0.021605
0.026	0.020822
0.027	0.018024
0.028	0.015705
0.029	0.015299
0.03	0.016485
0.031	0.017403
0.032	0.015717
0.033	0.0106
0.034	0.002934
0.035	-0.006233
0.036	-0.015395
0.037	-0.021751
0.038	-0.022817
0.039	-0.018482
0.04	-0.010843
0.041	-0.002473
0.042	0.00478
0.043	0.00983
0.044	0.012302
0.045	0.012786
0.046	0.012606
0.047	0.012912
0.048	0.014
0.049	0.015578
0.05	0.017088
0.051	0.017263
0.052	0.014605
0.053	0.009551
0.054	0.00463
0.055	0.001535
0.056	-0.000519
0.057	-0.003652
0.058	-0.009226
0.059	-0.014978
0.06	-0.012226
0.061	0.011859
0.062	0.063668
0.063	0.132494
0.064	0.193831
0.065	0.226372
0.066	0.225571
0.067	0.201244
0.068	0.165088
0.069	0.122531
0.07	0.07542
0.071	0.029058
0.072	-0.006384
0.073	-0.022075
0.074	-0.018154
0.075	-0.004506
0.076	0.007425
0.077	0.01309
0.078	0.014798
0.079	0.015783
0.08	0.016337
0.081	0.014854
0.082	0.010622
0.083	0.005023
0.084	0.00066
0.085	-0.000436
0.086	0.001872
0.087	0.005848
0.088	0.009444
0.089	0.011952
0.09	0.013654
0.091	0.014158
0.092	0.012403
0.093	0.008705
0.094	0.005002
0.095	0.002438
0.096	0.000714
0.097	-0.000454
0.098	-0.001298
0.099	-0.002866
0.1	-0.00633
0.101	-0.011398
0.102	-0.015965
0.103	-0.017624
0.104	-0.015797
0.105	-0.012227
0.106	-0.009254
0.107	-0.00804
0.108	-0.008214
0.109	-0.008491
0.11	-0.007883
0.111	-0.006881
0.112	-0.007129
0.113	-0.009309
0.114	-0.0125
0.115	-0.01593
0.116	-0.019202
0.117	-0.021072
0.118	-0.02039
0.119	-0.018125
0.12	-0.017186
0.121	-0.020057
0.122	-0.026463
0.123	-0.0332
0.124	-0.036656
0.125	-0.035357
0.126	-0.030056
0.127	-0.022557
0.128	-0.014692
0.129	-0.00754
0.13	-0.001597
0.131	0.001999
0.132	0.001515
0.133	-0.002838
0.134	-0.008101
0.135	-0.011411
0.136	-0.01165
0.137	-0.008783
0.138	-0.003992
0.139	1.7e-05
0.14	0.00042
0.141	-0.003462
0.142	-0.009331
0.143	-0.013901
0.144	-0.015826
0.145	-0.016121
0.146	-0.016192
0.147	-0.016214
0.148	-0.015091
0.149	-0.011529
0.15	-0.005373
0.151	0.001444
0.152	0.005578
0.153	0.004918
0.154	-0.000463
0.155	-0.010083
0.156	-0.022699
0.157	-0.033205
0.158	-0.03127
0.159	-0.00494
0.16	0.049727
0.161	0.119474
0.162	0.178108
0.163	0.204705
0.164	0.197478
0.165	0.169765
0.166	0.135609
0.167	0.100733
0.168	0.065312
0.169	0.03186
0.17	0.007304
0.171	-0.003276
0.172	-0.001975
0.173	0.004934
0.174	0.012407
0.175	0.017603
0.176	0.018952
0.177	0.015522
0.178	0.006513
0.179	-0.007813
0.18	-0.024302
0.181	-0.037114
0.182	-0.041241
0.183	-0.036305
0.184	-0.0263
0.185	-0.015866
0.186	-0.007331
0.187	-0.000522
0.188	0.005747
0.189	0.01224
0.19	0.018634
0.191	0.023295
0.192	0.024343
0.193	0.022107
0.194	0.018957
0.195	0.016348
0.196	0.014323
0.197	0.01296
0.198	0.011945
0.199	0.009529
0.2	0.003422
0.201	-0.007
0.202	-0.019573
0.203	-0.030327
0.204	-0.035656
0.205	-0.034373
0.206	-0.028099
0.207	-0.019644
0.208	-0.01119
0.209	-0.003746
0.21	0.002106
0.211	0.005111
0.212	0.004174
0.213	0.000828
0.214	-0.001376
0.215	-0.000539
0.216	0.002451
0.217	0.005542
0.218	0.006563
0.219	0.003772
0.22	-0.002929
0.221	-0.011107
0.222	-0.01715
0.223	-0.019146
0.224	-0.018105
0.225	-0.01635
0.226	-0.015193
0.227	-0.014259
0.228	-0.012527
0.229	-0.009463
0.23	-0.00559
0.231	-0.002661
0.232	-0.002401
0.233	-0.004261
0.234	-0.005926
0.235	-0.006254
0.236	-0.005751
0.237	-0.005067
0.238	-0.005052
0.239	-0.007403
0.24	-0.013694
0.241	-0.023636
0.242	-0.034545
0.243	-0.042464
0.244	-0.044269
0.245	-0.039337
0.246	-0.029546
0.247	-0.018025
0.248	-0.007629
0.249	0.000198
0.25	0.005384
0.251	0.008173
0.252	0.008975
0.253	0.009201
0.254	0.00976
0.255	0.008324
0.256	0.001644
0.257	-0.007805
0.258	-0.008755
0.259	0.013067
0.26	0.062213
0.261	0.124983
0.262	0.176629
0.263	0.199131
0.264	0.191368
0.265	0.16406
0.266	0.128559
0.267	0.090777
0.268	0.053444
0.269	0.021033
0.27	-0.000205
0.271	-0.007202
0.272	-0.003108
0.273	0.005519
0.274	0.012819
0.275	0.015159
0.276	0.012233
0.277	0.007089
0.278	0.002838
0.279	-0.000416
0.28	-0.004826
0.281	-0.011903
0.282	-0.020815
0.283	-0.029328
0.284	-0.036007
0.285	-0.040884
0.286	-0.044096
0.287	-0.044523
0.288	-0.039883
0.289	-0.028618
0.29	-0.012283
0.291	0.004207
0.292	0.015651
0.293	0.020544
0.294	0.021109
0.295	0.019755
0.296	0.017811
0.297	0.016379
0.298	0.015476
0.299	0.013104
0.3	0.007022
0.301	-0.002592
0.302	-0.012867
0.303	-0.020727
0.304	-0.024986
0.305	-0.02585
0.306	-0.023657
0.307	-0.018826
0.308	-0.012315
0.309	-0.005608
0.31	-0.000173
0.311	0.002946
0.312	0.003504
0.313	0.002726
0.314	0.002101
0.315	0.001149
0.316	-0.001358
0.317	-0.004812
0.318	-0.007457
0.319	-0.008812
0.32	-0.010455
0.321	-0.014538
0.322	-0.021538
0.323	-0.029492
0.324	-0.035244
0.325	-0.036379
0.326	-0.032633
0.327	-0.025828
0.328	-0.018362
0.329	-0.011869
0.33	-0.007007
0.331	-0.004026
0.332	-0.002763
0.333	-0.001836
0.334	7.4e-05
0.335	0.00191
0.336	0.00172
0.337	-0.000486
0.338	-0.003286
0.339	-0.006002
0.34	-0.00915
0.341	-0.012988
0.342	-0.016477
0.343	-0.018387
0.344	-0.018896
0.345	-0.019167
0.346	-0.019569
0.347	-0.019047
0.348	-0.01651
0.349	-0.012273
0.35	-0.007838
0.351	-0.004956
0.352	-0.004448
0.353	-0.00506
0.354	-0.005055
0.355	-0.004936
0.356	-0.006184
0.357	-0.008782
0.358	-0.012485
0.359	-0.018809
0.36	-0.028314
0.361	-0.034274
0.362	-0.021771
0.363	0.021023
0.364	0.087923
0.365	0.154227
0.366	0.194412
0.367	0.199715
0.368	0.17901
0.369	0.14663
0.37	0.111118
0.371	0.073861
0.372	0.036396
0.373	0.00609
0.374	-0.008798
0.375	-0.00803
0.376	0.000607
0.377	0.00873
0.378	0.012296
0.379	0.011345
0.38	0.007941
0.381	0.004566
0.382	0.002528
0.383	0.000822
0.384	-0.002678
0.385	-0.008556
0.386	-0.014729
0.387	-0.018053
0.388	-0.016874
0.389	-0.01212
0.39	-0.006852
0.391	-0.00543
0.392	-0.011285
0.393	-0.023579
0.394	-0.037315
0.395	-0.047188
0.396	-0.05007
0.397	-0.045393
0.398	-0.035296
0.399	-0.023801
0.4	-0.014627
0.401	-0.009416
0.402	-0.00769
0.403	-0.007858
0.404	-0.008361
0.405	-0.008523
0.406	-0.008479
0.407	-0.008524
0.408	-0.008733
0.409	-0.008875
0.41	-0.008602
0.411	-0.007899
0.412	-0.006768
0.413	-0.004326
0.414	-4.6e-05
0.415	0.00421
0.416	0.005639
0.417	0.003381
0.418	-0.001423
0.419	-0.007366
0.42	-0.013451
0.421	-0.018452
0.422	-0.020694
0.423	-0.019383
0.424	-0.016085
0.425	-0.013902
0.426	-0.014752
0.427	-0.018079
0.428	-0.021983
0.429	-0.024671
0.43	-0.025229
0.431	-0.023909
0.432	-0.021318
0.433	-0.017146
0.434	-0.011418
0.435	-0.006695
0.436	-0.006052
0.437	-0.009198
0.438	-0.012779
0.439	-0.014194
0.44	-0.014119
0.441	-0.015317
0.442	-0.019618
0.443	-0.026327
0.444	-0.032908
0.445	-0.036634
0.446	-0.036195
0.447	-0.032414
0.448	-0.027186
0.449	-0.021845
0.45	-0.016954
0.451	-0.013184
0.452	-0.011217
0.453	-0.010493
0.454	-0.009792
0.455	-0.009261
0.456	-0.00973
0.457	-0.010671
0.458	-0.010718
0.459	-0.00941
0.46	-0.007598
0.461	-0.006896
0.462	-0.009221
0.463	-0.015353
0.464	-0.020983
0.465	-0.014311
0.466	0.01686
0.467	0.071435
0.468	0.131175
0.469	0.173642
0.47	0.187713
0.471	0.176522
0.472	0.149737
0.473	0.115627
0.474	0.078123
0.475	0.039499
0.476	0.005374
0.477	-0.015917
0.478	-0.020381
0.479	-0.012623
0.48	-0.002363
0.481	0.002395
0.482	-0.000599
0.483	-0.008657
0.484	-0.017488
0.485	-0.023933
0.486	-0.027087
0.487	-0.027757
0.488	-0.026948
0.489	-0.025061
0.49	-0.02224
0.491	-0.019051
0.492	-0.016155
0.493	-0.013129
0.494	-0.009354
0.495	-0.005913
0.496	-0.004278
0.497	-0.00448
0.498	-0.006444
0.499	-0.011268
0.5	-0.019662
0.501	-0.029561
0.502	-0.036363
0.503	-0.036529
0.504	-0.030846
0.505	-0.023639
0.506	-0.019031
0.507	-0.018021
0.508	-0.018638
0.509	-0.018362
0.51	-0.016351
0.511	-0.014006
0.512	-0.013188
0.513	-0.013469
0.514	-0.01282
0.515	-0.010843
0.516	-0.008765
0.517	-0.007235
0.518	-0.006114
0.519	-0.005568
0.52	-0.006411
0.521	-0.0091
0.522	-0.012719
0.523	-0.015603
0.524	-0.016885
0.525	-0.017134
0.526	-0.017599
0.527	-0.019012
0.528	-0.021249
0.529	-0.023749
0.53	-0.025934
0.531	-0.027496
0.532	-0.027973
0.533	-0.026108
0.534	-0.021566
0.535	-0.016867
0.536	-0.015048
0.537	-0.016423
0.538	-0.019054
0.539	-0.021001
0.54	-0.021361
0.541	-0.020005
0.542	-0.017385
0.543	-0.014666
0.544	-0.013304
0.545	-0.014185
0.546	-0.017045
0.547	-0.020711
0.548	-0.024077
0.549	-0.026821
0.55	-0.029271
0.551	-0.031937
0.552	-0.034332
0.553	-0.034059
0.554	-0.029286
0.555	-0.021997
0.556	-0.016268
0.557	-0.014056
0.558	-0.014186
0.559	-0.014492
0.56	-0.014019
0.561	-0.013394
0.562	-0.013597
0.563	-0.014844
0.564	-0.017119
0.565	-0.021459
0.566	-0.028805
0.567	-0.035728
0.568	-0.031582
0.569	-0.00364
0.57	0.05004
0.571	0.113191
0.572	0.161425
0.573	0.180305
0.574	0.171704
0.575	0.146032
0.576	0.112722
0.577	0.076661
0.578	0.040674
0.579	0.009647
0.58	-0.009867
0.581	-0.01473
0.582	-0.00854
0.583	0.000787
0.584	0.00638
0.585	0.005955
0.586	0.001376
0.587	-0.004432
0.588	-0.009979
0.589	-0.015363
0.59	-0.02124
0.591	-0.028017
0.592	-0.035013
0.593	-0.039967
0.594	-0.040814
0.595	-0.037982
0.596	-0.033388
0.597	-0.028018
0.598	-0.021893
0.599	-0.015457
0.6	-0.01016
0.601	-0.007771
0.602	-0.008974
0.603	-0.012765
0.604	-0.017865
0.605	-0.024463
0.606	-0.033832
0.607	-0.046257
0.608	-0.059343
0.609	-0.068481
0.61	-0.069848
0.611	-0.063493
0.612	-0.053035
0.613	-0.042372
0.614	-0.033799
0.615	-0.028354
0.616	-0.025498
0.617	-0.022957
0.618	-0.018453
0.619	-0.011333
0.62	-0.002556
0.621	0.006102
0.622	0.012714
0.623	0.015637
0.624	0.014058
0.625	0.008757
0.626	0.002017
0.627	-0.003759
0.628	-0.007353
0.629	-0.009054
0.63	-0.010356
0.631	-0.013295
0.632	-0.01892
0.633	-0.025844
0.634	-0.031675
0.635	-0.035785
0.636	-0.03875
0.637	-0.040132
0.638	-0.038732
0.639	-0.034317
0.64	-0.028308
0.641	-0.022924
0.642	-0.019586
0.643	-0.018216
0.644	-0.017923
0.645	-0.017831
0.646	-0.017439
0.647	-0.016607
0.648	-0.015359
0.649	-0.014025
0.65	-0.013551
0.651	-0.015265
0.652	-0.019763
0.653	-0.025989
0.654	-0.032559
0.655	-0.039396
0.656	-0.046169
0.657	-0.050553
0.658	-0.049954
0.659	-0.043903
0.66	-0.033989
0.661	-0.022282
0.662	-0.010525
0.663	-0.000534
0.664	0.005729
0.665	0.007168
0.666	0.004137
0.667	-0.002444
0.668	-0.012022
0.669	-0.022857
0.67	-0.028574
0.671	-0.018573
0.672	0.014138
0.673	0.064097
0.674	0.113835
0.675	0.145298
0.676	0.151944
0.677	0.139897
0.678	0.11893
0.679	0.093998
0.68	0.065169
0.681	0.033968
0.682	0.006884
0.683	-0.008763
0.684	-0.011025
0.685	-0.004673
0.686	0.002726
0.687	0.005985
0.688	0.004567
0.689	0.000966
0.69	-0.002464
0.691	-0.005486
0.692	-0.009066
0.693	-0.013288
0.694	-0.01804
0.695	-0.02456
0.696	-0.033372
0.697	-0.042022
0.698	-0.046693
0.699	-0.044953
0.7	-0.036616
0.701	-0.023228
0.702	-0.007731
0.703	0.005731
0.704	0.013132
0.705	0.01254
0.706	0.004918
0.707	-0.006674
0.708	-0.01855
0.709	-0.027518
0.71	-0.031594
0.711	-0.030815
0.712	-0.027295
0.713	-0.02387
0.714	-0.02284
0.715	-0.02536
0.716	-0.030597
0.717	-0.035732
0.718	-0.037575
0.719	-0.034533
0.72	-0.027305
0.721	-0.01801
0.722	-0.009057
0.723	-0.002481
0.724	0.000645
0.725	0.000448
0.726	-0.00197
0.727	-0.004841
0.728	-0.006271
0.729	-0.005223
0.73	-0.002628
0.731	-0.001646
0.732	-0.005724
0.733	-0.015853
0.734	-0.030411
0.735	-0.046663
0.736	-0.06108
0.737	-0.069649
0.738	-0.069599
0.739	-0.061013
0.74	-0.046508
0.741	-0.029646
0.742	-0.013968
0.743	-0.002761
0.744	0.001654
0.745	-0.000866
0.746	-0.007814
0.747	-0.015231
0.748	-0.019745
0.749	-0.019979
0.75	-0.016957
0.751	-0.012981
0.752	-0.008121
0.753	0.002357
0.754	0.024178
0.755	0.056784
0.756	0.091883
0.757	0.119126
0.758	0.131695
0.759	0.127393
0.76	0.107021
0.761	0.073412
0.762	0.032394
0.763	-0.006479
0.764	-0.033165
0.765	-0.043145
0.766	-0.039737
0.767	-0.030259
0.768	-0.02066
0.769	-0.013755
0.77	-0.011358
0.771	-0.015862
0.772	-0.02709
0.773	-0.037375
0.774	-0.033506
0.775	-0.007549
0.776	0.034354
0.777	0.075898
0.778	0.103142
0.779	0.112801
0.78	0.110371
0.781	0.102275
0.782	0.089729
0.783	0.069881
0.784	0.042723
0.785	0.015085
0.786	-0.003776
0.787	-0.009611
0.788	-0.005288
0.789	0.002764
0.79	0.008733
0.791	0.010007
0.792	0.009077
0.793	0.013376
0.794	0.029749
0.795	0.057374
0.796	0.087704
0.797	0.110911
0.798	0.12082
0.799	0.115179
0.8	0.094101
0.801	0.060255
0.802	0.020933
0.803	-0.012368
0.804	-0.029967
0.805	-0.03077
0.806	-0.022273
0.807	-0.013891
0.808	-0.010786
0.809	-0.013108
0.81	-0.018835
0.811	-0.026237
0.812	-0.034231
0.813	-0.041809
0.814	-0.048908
0.815	-0.057211
0.816	-0.067823
0.817	-0.078692
0.818	-0.08551
0.819	-0.084518
0.82	-0.074435
0.821	-0.056888
0.822	-0.035913
0.823	-0.016722
0.824	-0.003573
0.825	0.002129
0.826	0.001775
0.827	-0.001783
0.828	-0.005463
0.829	-0.00725
0.83	-0.007248
0.831	-0.00689
0.832	-0.005492
0.833	0.002168
0.834	0.021597
0.835	0.051302
0.836	0.082345
0.837	0.104399
0.838	0.110568
0.839	0.09842
0.84	0.069585
0.841	0.029726
0.842	-0.01165
0.843	-0.043417
0.844	-0.057828
0.845	-0.055372
0.846	-0.044303
0.847	-0.033968
0.848	-0.028214
0.849	-0.024852
0.85	-0.020697
0.851	-0.016515
0.852	-0.016685
0.853	-0.025113
0.854	-0.042937
0.855	-0.06815
0.856	-0.094951
0.857	-0.115421
0.858	-0.123933
0.859	-0.119745
0.86	-0.105804
0.861	-0.085828
0.862	-0.062711
0.863	-0.039285
0.864	-0.019223
0.865	-0.006032
0.866	-0.001095
0.867	-0.00293
0.868	-0.008213
0.869	-0.013565
0.87	-0.01696
0.871	-0.017481
0.872	-0.012769
0.873	0.001921
0.874	0.028618
0.875	0.061323
0.876	0.08996
0.877	0.11008
0.878	0.12619
0.879	0.143936
0.88	0.16101
0.881	0.169678
0.882	0.166984
0.883	0.157654
0.884	0.146929
0.885	0.133893
0.886	0.112756
0.887	0.080126
0.888	0.04166
0.889	0.011041
0.89	-0.000365
0.891	0.006783
0.892	0.021435
0.893	0.030849
0.894	0.026306
0.895	0.005703
0.896	-0.024837
0.897	-0.053622
0.898	-0.07029
0.899	-0.070653
0.9	-0.055787
0.901	-0.029522
0.902	0.00156
0.903	0.029282
0.904	0.047786
0.905	0.055655
0.906	0.055414
0.907	0.052329
0.908	0.051243
0.909	0.052419
0.91	0.05133
0.911	0.044198
0.912	0.034331
0.913	0.031735
0.914	0.044679
0.915	0.071849
0.916	0.103645
0.917	0.130281
0.918	0.14743
0.919	0.154549
0.92	0.150117
0.921	0.131456
0.922	0.100487
0.923	0.067305
0.924	0.0442
0.925	0.03615
0.926	0.039171
0.927	0.046388
0.928	0.053416
0.929	0.058768
0.93	0.061144
0.931	0.057898
0.932	0.046853
0.933	0.028678
0.934	0.006415
0.935	-0.016419
0.936	-0.036558
0.937	-0.051361
0.938	-0.05933
0.939	-0.059404
0.94	-0.049999
0.941	-0.030385
0.942	-0.003453
0.943	0.023941
0.944	0.044355
0.945	0.054025
0.946	0.054363
0.947	0.049896
0.948	0.045136
0.949	0.042554
0.95	0.04215
0.951	0.043055
0.952	0.046738
0.953	0.057678
0.954	0.078009
0.955	0.10256
0.956	0.124094
0.957	0.143701
0.958	0.17016
0.959	0.205611
0.96	0.235991
0.961	0.24108
0.962	0.213621
0.963	0.166141
0.964	0.11988
0.965	0.088569
0.966	0.072054
0.967	0.063151
0.968	0.057784
0.969	0.057102
0.97	0.061962
0.971	0.068654
0.972	0.070707
0.973	0.06314
0.974	0.044116
0.975	0.015067
0.976	-0.018498
0.977	-0.048123
0.978	-0.066388
0.979	-0.069789
0.98	-0.058812
0.981	-0.037063
0.982	-0.010423
0.983	0.014368
0.984	0.031988
0.985	0.040604
0.986	0.041878
0.987	0.039223
0.988	0.035958
0.989	0.033984
0.99	0.033221
0.991	0.032672
0.992	0.033514
0.993	0.040825
0.994	0.0591
0.995	0.085765
0.996	0.11154
0.997	0.126702
0.998	0.125952
0.999	0.109185
1.0	0.079911
1.001	0.043821
1.002	0.008167
1.003	-0.01951
1.004	-0.034193
1.005	-0.035902
1.006	-0.028874
1.007	-0.017498
1.008	-0.003571
1.009	0.011933
1.01	0.025595
1.011	0.031541
1.012	0.025215
1.013	0.006588
1.014	-0.020943
1.015	-0.052964
1.016	-0.084126
1.017	-0.108439
1.018	-0.121509
1.019	-0.121804
1.02	-0.109777
1.021	-0.087025
1.022	-0.057019
1.023	-0.025931
1.024	-0.001246
1.025	0.011469
1.026	0.011305
1.027	0.002286
1.028	-0.009287
1.029	-0.01854
1.03	-0.024073
1.031	-0.026714
1.032	-0.025348
1.033	-0.014968
1.034	0.008071
1.035	0.039502
1.036	0.068552
1.037	0.08499
1.038	0.084077
1.039	0.066972
1.04	0.038661
1.041	0.006026
1.042	-0.023339
1.043	-0.042721
1.044	-0.04922
1.045	-0.045979
1.046	-0.040036
1.047	-0.036846
1.048	-0.03713
1.049	-0.038293
1.05	-0.038099
1.051	-0.03757
1.052	-0.040642
1.053	-0.051078
1.054	-0.069919
1.055	-0.094608
1.056	-0.119297
1.057	-0.137054
1.058	-0.143058
1.059	-0.136206
1.06	-0.118493
1.061	-0.093652
1.062	-0.066408
1.063	-0.041947
1.064	-0.024607
1.065	-0.016176
1.066	-0.015206
1.067	-0.018145
1.068	-0.021493
1.069	-0.023399
1.07	-0.024094
1.071	-0.024586
1.072	-0.02334
1.073	-0.015028
1.074	0.004654
1.075	0.033144
1.076	0.061467
1.077	0.079901
1.078	0.082903
1.079	0.070228
1.08	0.04561
1.081	0.015188
1.082	-0.013727
1.083	-0.034153
1.084	-0.04233
1.085	-0.040279
1.086	-0.034202
1.087	-0.029562
1.088	-0.027889
1.089	-0.0276
1.09	-0.027201
1.091	-0.027635
1.092	-0.031621
1.093	-0.041693
1.094	-0.059285
1.095	-0.083582
1.096	-0.109946
1.097	-0.13095
1.098	-0.140132
1.099	-0.134753
1.1	-0.115959
1.101	-0.087952
1.102	-0.05717
1.103	-0.030696
1.104	-0.013698
1.105	-0.007398
1.106	-0.009212
1.107	-0.014821
1.108	-0.020253
1.109	-0.023127
1.11	-0.0234
1.111	-0.022416
1.112	-0.019528
1.113	-0.010559
1.114	0.007866
1.115	0.03278
1.116	0.055647
1.117	0.068248
1.118	0.066836
1.119	0.05205
1.12	0.027152
1.121	-0.002849
1.122	-0.031079
1.123	-0.050051
1.124	-0.055735
1.125	-0.050819
1.126	-0.042681
1.127	-0.037647
1.128	-0.036963
1.129	-0.037582
1.13	-0.036352
1.131	-0.033377
1.132	-0.031902
1.133	-0.036198
1.134	-0.049678
1.135	-0.072576
1.136	-0.099973
1.137	-0.12376
1.138	-0.137595
1.139	-0.139533
1.14	-0.130667
1.141	-0.112566
1.142	-0.086607
1.143	-0.055825
1.144	-0.026126
1.145	-0.004104
1.146	0.006463
1.147	0.006515
1.148	0.00108
1.149	-0.003951
1.15	-0.005526
1.151	-0.003852
1.152	0.001322
1.153	0.013335
1.154	0.034865
1.155	0.062398
1.156	0.087072
1.157	0.100391
1.158	0.098222
1.159	0.081175
1.16	0.053268
1.161	0.020982
1.162	-0.007267
1.163	-0.023701
1.164	-0.026043
1.165	-0.019892
1.166	-0.01474
1.167	-0.016599
1.168	-0.024155
1.169	-0.031465
1.17	-0.03373
1.171	-0.031073
1.172	-0.02802
1.173	-0.030526
1.174	-0.043364
1.175	-0.067409
1.176	-0.097473
1.177	-0.124485
1.178	-0.140561
1.179	-0.141232
1.18	-0.124063
1.181	-0.088381
1.182	-0.038637
1.183	0.013835
1.184	0.058748
1.185	0.100196
1.186	0.156583
1.187	0.239211
1.188	0.331802
1.189	0.397729
1.19	0.408801
1.191	0.365771
1.192	0.294315
1.193	0.223698
1.194	0.166632
1.195	0.118157
1.196	0.072023
1.197	0.032114
1.198	0.006406
1.199	-0.004395
1.2	-0.008238
1.201	-0.013377
1.202	-0.021213
1.203	-0.027502
1.204	-0.029212
1.205	-0.029054
1.206	-0.032727
1.207	-0.042599
1.208	-0.055271
1.209	-0.064649
1.21	-0.066829
1.211	-0.063074
1.212	-0.058818
1.213	-0.060222
1.214	-0.071228
1.215	-0.091305
1.216	-0.11476
1.217	-0.133722
1.218	-0.142378
1.219	-0.138134
1.22	-0.120295
1.221	-0.090112
1.222	-0.05282
1.223	-0.017869
1.224	0.00497
1.225	0.010629
1.226	0.000871
1.227	-0.017257
1.228	-0.035157
1.229	-0.046649
1.23	-0.05035
1.231	-0.048294
1.232	-0.040924
1.233	-0.024876
1.234	0.001878
1.235	0.03436
1.236	0.062237
1.237	0.07633
1.238	0.073213
1.239	0.055281
1.24	0.028451
1.241	-0.000183
1.242	-0.024101
1.243	-0.038711
1.244	-0.043102
1.245	-0.041321
1.246	-0.04043
1.247	-0.046004
1.248	-0.059123
1.249	-0.076963
1.25	-0.095719
1.251	-0.112663
1.252	-0.12523
1.253	-0.12887
1.254	-0.115406
1.255	-0.072022
1.256	0.015692
1.257	0.15337
1.258	0.325002
1.259	0.488993
1.26	0.591676
1.261	0.593036
1.262	0.487518
1.263	0.306789
1.264	0.103986
1.265	-0.070411
1.266	-0.186141
1.267	-0.236078
1.268	-0.229764
1.269	-0.186365
1.27	-0.129007
1.271	-0.077581
1.272	-0.040733
1.273	-0.014362
1.274	0.009638
1.275	0.033214
1.276	0.050836
1.277	0.055692
1.278	0.045391
1.279	0.023101
1.28	-0.004625
1.281	-0.030624
1.282	-0.048742
1.283	-0.054904
1.284	-0.049104
1.285	-0.036415
1.286	-0.024303
1.287	-0.018068
1.288	-0.018336
1.289	-0.022158
1.29	-0.026474
1.291	-0.030762
1.292	-0.036903
1.293	-0.047889
1.294	-0.066794
1.295	-0.094574
1.296	-0.127404
1.297	-0.157207
1.298	-0.175455
1.299	-0.17667
1.3	-0.159692
1.301	-0.127586
1.302	-0.08702
1.303	-0.046903
1.304	-0.01585
1.305	0.001031
1.306	0.003953
1.307	-0.00253
1.308	-0.012319
1.309	-0.020823
1.31	-0.026643
1.311	-0.030035
1.312	-0.028987
1.313	-0.018591
1.314	0.003194
1.315	0.030566
1.316	0.052915
1.317	0.061846
1.318	0.054918
1.319	0.034969
1.32	0.007714
1.321	-0.020129
1.322	-0.041742
1.323	-0.0518
1.324	-0.049253
1.325	-0.038498
1.326	-0.026854
1.327	-0.020013
1.328	-0.01911
1.329	-0.021585
1.33	-0.024585
1.331	-0.027555
1.332	-0.032129
1.333	-0.04109
1.334	-0.057727
1.335	-0.083257
1.336	-0.113419
1.337	-0.139474
1.338	-0.153155
1.339	-0.150341
1.34	-0.131651
1.341	-0.10141
1.342	-0.066191
1.343	-0.033282
1.344	-0.008772
1.345	0.004321
1.346	0.006716
1.347	0.002157
1.348	-0.004506
1.349	-0.009741
1.35	-0.012609
1.351	-0.013422
1.352	-0.010394
1.353	0.000816
1.354	0.021637
1.355	0.046003
1.356	0.063513
1.357	0.066449
1.358	0.053883
1.359	0.031021
1.36	0.005556
1.361	-0.015675
1.362	-0.027914
1.363	-0.02885
1.364	-0.019767
1.365	-0.00612
1.366	0.005071
1.367	0.009723
1.368	0.008564
1.369	0.005082
1.37	0.001892
1.371	-0.001746
1.372	-0.009322
1.373	-0.024265
1.374	-0.047544
1.375	-0.076571
1.376	-0.105674
1.377	-0.12805
1.378	-0.137838
1.379	-0.13166
1.38	-0.109448
1.381	-0.074507
1.382	-0.033333
1.383	0.005416
1.384	0.033509
1.385	0.045793
1.386	0.041268
1.387	0.023197
1.388	-0.000339
1.389	-0.01674
1.39	-0.014121
1.391	0.010537
1.392	0.050494
1.393	0.096982
1.394	0.144252
1.395	0.187615
1.396	0.220576
1.397	0.234906
1.398	0.223326
1.399	0.1841
1.4	0.125001
1.401	0.06177
1.402	0.01057
1.403	-0.019244
1.404	-0.027653
1.405	-0.022066
1.406	-0.012214
1.407	-0.004798
1.408	-0.001553
1.409	-0.001221
1.41	-0.003004
1.411	-0.008098
1.412	-0.018162
1.413	-0.034205
1.414	-0.056996
1.415	-0.085394
1.416	-0.113923
1.417	-0.134345
1.418	-0.140134
1.419	-0.129425
1.42	-0.105024
1.421	-0.073002
1.422	-0.040934
1.423	-0.015458
1.424	4.6e-05
1.425	0.006015
1.426	0.005321
1.427	0.001366
1.428	-0.003198
1.429	-0.007154
1.43	-0.011011
1.431	-0.015332
1.432	-0.017247
1.433	-0.01053
1.434	0.008445
1.435	0.035676
1.436	0.061331
1.437	0.07588
1.438	0.074926
1.439	0.060017
1.44	0.036378
1.441	0.010176
1.442	-0.012753
1.443	-0.027569
1.444	-0.032355
1.445	-0.029675
1.446	-0.024789
1.447	-0.021878
1.448	-0.021814
1.449	-0.023041
1.45	-0.024503
1.451	-0.027468
1.452	-0.034584
1.453	-0.048356
1.454	-0.070032
1.455	-0.097466
1.456	-0.123992
1.457	-0.14143
1.458	-0.144652
1.459	-0.133219
1.46	-0.110025
1.461	-0.079718
1.462	-0.048082
1.463	-0.021765
1.464	-0.006915
1.465	-0.006291
1.466	-0.017108
1.467	-0.031973
1.468	-0.042751
1.469	-0.045161
1.47	-0.040613
1.471	-0.032894
1.472	-0.022343
1.473	-0.004859
1.474	0.021867
1.475	0.053183
1.476	0.080034
1.477	0.095182
1.478	0.096355
1.479	0.085109
1.48	0.06443
1.481	0.037843
1.482	0.00997
1.483	-0.013548
1.484	-0.026725
1.485	-0.02309
1.486	0.002707
1.487	0.048806
1.488	0.101997
1.489	0.144033
1.49	0.163571
1.491	0.16111
1.492	0.143633
1.493	0.115566
1.494	0.075176
1.495	0.021395
1.496	-0.037124
1.497	-0.083918
1.498	-0.105979
1.499	-0.101435
1.5	-0.077708
1.501	-0.045172
1.502	-0.012944
1.503	0.012099
1.504	0.025901
1.505	0.028018
1.506	0.021121
1.507	0.009613
1.508	-0.001816
1.509	-0.010032
1.51	-0.014795
1.511	-0.017215
1.512	-0.015612
1.513	-0.004858
1.514	0.017713
1.515	0.047542
1.516	0.075377
1.517	0.092758
1.518	0.095179
1.519	0.082599
1.52	0.058754
1.521	0.03033
1.522	0.005642
1.523	-0.008555
1.524	-0.011178
1.525	-0.007891
1.526	-0.006721
1.527	-0.011709
1.528	-0.020775
1.529	-0.02907
1.53	-0.033964
1.531	-0.037339
1.532	-0.043583
1.533	-0.056272
1.534	-0.076223
1.535	-0.100174
1.536	-0.121357
1.537	-0.1331
1.538	-0.131875
1.539	-0.117525
1.54	-0.092439
1.541	-0.060979
1.542	-0.028955
1.543	-0.002583
1.544	0.013366
1.545	0.017196
1.546	0.010873
1.547	-0.000663
1.548	-0.011808
1.549	-0.01928
1.55	-0.023571
1.551	-0.026647
1.552	-0.026868
1.553	-0.018095
1.554	0.00381
1.555	0.035266
1.556	0.066509
1.557	0.087353
1.558	0.091918
1.559	0.079804
1.56	0.054848
1.561	0.023726
1.562	-0.005457
1.563	-0.025533
1.564	-0.033537
1.565	-0.032479
1.566	-0.028703
1.567	-0.026718
1.568	-0.026714
1.569	-0.026602
1.57	-0.026103
1.571	-0.028534
1.572	-0.038272
1.573	-0.057719
1.574	-0.086181
1.575	-0.118319
1.576	-0.144286
1.577	-0.15461
1.578	-0.145514
1.579	-0.119872
1.58	-0.084992
1.581	-0.050147
1.582	-0.023417
1.583	-0.00642
1.584	0.008954
1.585	0.034717
1.586	0.074335
1.587	0.117645
1.588	0.150096
1.589	0.164649
1.59	0.163221
1.591	0.15124
1.592	0.13482
1.593	0.120093
1.594	0.111438
1.595	0.110421
1.596	0.11569
1.597	0.12269
1.598	0.12477
1.599	0.116367
1.6	0.096007
1.601	0.067056
1.602	0.036516
1.603	0.012143
1.604	-0.002042
1.605	-0.008194
1.606	-0.011715
1.607	-0.016188
1.608	-0.021324
1.609	-0.024989
1.61	-0.026784
1.611	-0.02908
1.612	-0.034636
1.613	-0.045114
1.614	-0.061509
1.615	-0.082798
1.616	-0.104182
1.617	-0.118867
1.618	-0.121704
1.619	-0.110992
1.62	-0.088323
1.621	-0.058124
1.622	-0.026981
1.623	-0.001922
1.624	0.012048
1.625	0.013741
1.626	0.005709
1.627	-0.0073
1.628	-0.020245
1.629	-0.029815
1.63	-0.035662
1.631	-0.038316
1.632	-0.034964
1.633	-0.020056
1.634	0.007947
1.635	0.042684
1.636	0.07377
1.637	0.092922
1.638	0.096666
1.639	0.085646
1.64	0.063156
1.641	0.034572
1.642	0.00709
1.643	-0.012457
1.644	-0.021435
1.645	-0.022987
1.646	-0.023133
1.647	-0.025926
1.648	-0.030909
1.649	-0.034892
1.65	-0.035892
1.651	-0.035119
1.652	-0.035769
1.653	-0.041528
1.654	-0.055615
1.655	-0.077928
1.656	-0.102718
1.657	-0.121099
1.658	-0.126071
1.659	-0.115318
1.66	-0.091134
1.661	-0.059163
1.662	-0.026822
1.663	-0.001318
1.664	0.012609
1.665	0.014035
1.666	0.005526
1.667	-0.008022
1.668	-0.021009
1.669	-0.029477
1.67	-0.032628
1.671	-0.031133
1.672	-0.023207
1.673	-0.004731
1.674	0.024754
1.675	0.058651
1.676	0.087284
1.677	0.10346
1.678	0.104304
1.679	0.089931
1.68	0.061927
1.681	0.023864
1.682	-0.017124
1.683	-0.050715
1.684	-0.066056
1.685	-0.055039
1.686	-0.016345
1.687	0.040595
1.688	0.097559
1.689	0.137778
1.69	0.154858
1.691	0.151485
1.692	0.132114
1.693	0.09784
1.694	0.048226
1.695	-0.010943
1.696	-0.064452
1.697	-0.095869
1.698	-0.098463
1.699	-0.077707
1.7	-0.04541
1.701	-0.012548
1.702	0.013921
1.703	0.030565
1.704	0.036361
1.705	0.032059
1.706	0.020051
1.707	0.004528
1.708	-0.009424
1.709	-0.018295
1.71	-0.022253
1.711	-0.02346
1.712	-0.020749
1.713	-0.008486
1.714	0.016747
1.715	0.050621
1.716	0.083096
1.717	0.104307
1.718	0.109011
1.719	0.097427
1.72	0.073662
1.721	0.043855
1.722	0.014741
1.723	-0.007645
1.724	-0.02001
1.725	-0.02388
1.726	-0.02452
1.727	-0.026491
1.728	-0.030469
1.729	-0.034347
1.73	-0.036956
1.731	-0.039952
1.732	-0.045897
1.733	-0.056651
1.734	-0.073437
1.735	-0.094786
1.736	-0.114736
1.737	-0.125701
1.738	-0.122962
1.739	-0.106444
1.74	-0.079802
1.741	-0.049007
1.742	-0.021139
1.743	-0.002091
1.744	0.006074
1.745	0.005295
1.746	-0.000738
1.747	-0.00856
1.748	-0.015582
1.749	-0.020551
1.75	-0.02417
1.751	-0.027309
1.752	-0.026751
1.753	-0.015569
1.754	0.009747
1.755	0.044439
1.756	0.07808
1.757	0.100594
1.758	0.106393
1.759	0.094789
1.76	0.068831
1.761	0.034761
1.762	0.001475
1.763	-0.021997
1.764	-0.031213
1.765	-0.02917
1.766	-0.023454
1.767	-0.020358
1.768	-0.021461
1.769	-0.024782
1.77	-0.028627
1.771	-0.033767
1.772	-0.042094
1.773	-0.055397
1.774	-0.074975
1.775	-0.099086
1.776	-0.121129
1.777	-0.132688
1.778	-0.128476
1.779	-0.108428
1.78	-0.076597
1.781	-0.039494
1.782	-0.005115
1.783	0.01846
1.784	0.025795
1.785	0.017408
1.786	0.001816
1.787	-0.006306
1.788	0.005878
1.789	0.038504
1.79	0.076735
1.791	0.104057
1.792	0.118297
1.793	0.130571
1.794	0.149112
1.795	0.168791
1.796	0.176751
1.797	0.165231
1.798	0.137763
1.799	0.104307
1.8	0.072537
1.801	0.044581
1.802	0.02065
1.803	0.002884
1.804	-0.006114
1.805	-0.007246
1.806	-0.005501
1.807	-0.006271
1.808	-0.011441
1.809	-0.019182
1.81	-0.027204
1.811	-0.035356
1.812	-0.045203
1.813	-0.059017
1.814	-0.07874
1.815	-0.10279
1.816	-0.124189
1.817	-0.134333
1.818	-0.128706
1.819	-0.108855
1.82	-0.080357
1.821	-0.049766
1.822	-0.0227
1.823	-0.003202
1.824	0.006784
1.825	0.007865
1.826	0.00245
1.827	-0.006595
1.828	-0.016629
1.829	-0.025744
1.83	-0.033206
1.831	-0.038052
1.832	-0.036288
1.833	-0.022357
1.834	0.004344
1.835	0.036897
1.836	0.065723
1.837	0.083998
1.838	0.088889
1.839	0.080236
1.84	0.059775
1.841	0.032067
1.842	0.004974
1.843	-0.013303
1.844	-0.019288
1.845	-0.016321
1.846	-0.011441
1.847	-0.010014
1.848	-0.012872
1.849	-0.017696
1.85	-0.02239
1.851	-0.02698
1.852	-0.032888
1.853	-0.042323
1.854	-0.057842
1.855	-0.079014
1.856	-0.099816
1.857	-0.111695
1.858	-0.108964
1.859	-0.091326
1.86	-0.062958
1.861	-0.030235
1.862	6.2e-05
1.863	0.022369
1.864	0.034335
1.865	0.037274
1.866	0.034254
1.867	0.028079
1.868	0.02057
1.869	0.012577
1.87	0.004265
1.871	-0.003173
1.872	-0.004882
1.873	0.005711
1.874	0.029964
1.875	0.061394
1.876	0.090475
1.877	0.109945
1.878	0.116192
1.879	0.108186
1.88	0.087152
1.881	0.058084
1.882	0.030198
1.883	0.012841
1.884	0.008614
1.885	0.010831
1.886	0.009897
1.887	0.003886
1.888	0.003008
1.889	0.021556
1.89	0.062359
1.891	0.110148
1.892	0.14318
1.893	0.148917
1.894	0.127868
1.895	0.08865
1.896	0.041707
1.897	-0.004818
1.898	-0.044159
1.899	-0.068107
1.9	-0.069115
1.901	-0.046991
1.902	-0.011829
1.903	0.021824
1.904	0.044014
1.905	0.053117
1.906	0.053116
1.907	0.048861
1.908	0.04313
1.909	0.036326
1.91	0.027778
1.911	0.018448
1.912	0.013809
1.913	0.021454
1.914	0.043849
1.915	0.075497
1.916	0.106904
1.917	0.129459
1.918	0.137676
1.919	0.12909
1.92	0.104166
1.921	0.06747
1.922	0.028313
1.923	-0.001866
1.924	-0.01548
1.925	-0.013355
1.926	-0.003004
1.927	0.007126
1.928	0.011933
1.929	0.010339
1.93	0.003315
1.931	-0.008035
1.932	-0.022907
1.933	-0.041545
1.934	-0.064961
1.935	-0.091213
1.936	-0.113356
1.937	-0.123102
1.938	-0.11586
1.939	-0.092649
1.94	-0.059098
1.941	-0.023484
1.942	0.005671
1.943	0.022788
1.944	0.027634
1.945	0.024533
1.946	0.018824
1.947	0.013672
1.948	0.009437
1.949	0.004853
1.95	-0.001561
1.951	-0.009034
1.952	-0.011921
1.953	-0.002571
1.954	0.021005
1.955	0.052299
1.956	0.081367
1.957	0.10084
1.958	0.107306
1.959	0.099512
1.96	0.077693
1.961	0.045403
1.962	0.011253
1.963	-0.013584
1.964	-0.02205
1.965	-0.015698
1.966	-0.002613
1.967	0.008512
1.968	0.013043
1.969	0.010956
1.97	0.003964
1.971	-0.006915
1.972	-0.021325
1.973	-0.039348
1.974	-0.061156
1.975	-0.084389
1.976	-0.10273
1.977	-0.109266
1.978	-0.100861
1.979	-0.079056
1.98	-0.048457
1.981	-0.015275
1.982	0.013709
1.983	0.032629
1.984	0.038386
1.985	0.03201
1.986	0.019688
1.987	0.013275
1.988	0.026326
1.989	0.063284
1.99	0.111762
1.991	0.151521
1.992	0.173323
1.993	0.184157
1.994	0.1939
1.995	0.202855
1.996	0.202772
1.997	0.186254
1.998	0.154371
1.999	0.115754
2.0	0.079158
2.001	0.048463
2.002	0.024297
2.003	0.007075
2.004	-0.003272
2.005	-0.008767
2.006	-0.012502
2.007	-0.015965
2.008	-0.018119
2.009	-0.017606
2.01	-0.015297
2.011	-0.014132
2.012	-0.016907
2.013	-0.0257
2.014	-0.042189
2.015	-0.064914
2.016	-0.086841
2.017	-0.098495
2.018	-0.093727
2.019	-0.072785
2.02	-0.041446
2.021	-0.007877
2.022	0.020425
2.023	0.038565
2.024	0.045367
2.025	0.043179
2.026	0.03601
2.027	0.027324
2.028	0.018768
2.029	0.010246
2.03	0.001172
2.031	-0.007076
2.032	-0.008946
2.033	0.00212
2.034	0.026415
2.035	0.056624
2.036	0.083619
2.037	0.101086
2.038	0.105872
2.039	0.096804
2.04	0.074735
2.041	0.044164
2.042	0.013672
2.043	-0.007422
2.044	-0.014451
2.045	-0.010072
2.046	-0.001414
2.047	0.005397
2.048	0.008015
2.049	0.006608
2.05	0.001313
2.051	-0.008431
2.052	-0.022565
2.053	-0.040695
2.054	-0.063138
2.055	-0.088257
2.056	-0.109945
2.057	-0.120643
2.058	-0.116153
2.059	-0.097041
2.06	-0.067213
2.061	-0.032797
2.062	-0.001629
2.063	0.019089
2.064	0.026547
2.065	0.023616
2.066	0.016345
2.067	0.010042
2.068	0.006616
2.069	0.004383
2.07	0.000184
2.071	-0.006369
2.072	-0.009374
2.073	-0.000446
2.074	0.022397
2.075	0.052251
2.076	0.078928
2.077	0.094914
2.078	0.097477
2.079	0.08752
2.08	0.067851
2.081	0.042739
2.082	0.018229
2.083	0.001097
2.084	-0.004824
2.085	-0.00192
2.086	0.002518
2.087	0.001516
2.088	-0.005787
2.089	-0.011109
2.09	-0.00126
2.091	0.030139
2.092	0.073342
2.093	0.10659
2.094	0.112137
2.095	0.089626
2.096	0.053902
2.097	0.021134
2.098	-0.001643
2.099	-0.015142
2.1	-0.019993
2.101	-0.013797
2.102	0.00388
2.103	0.026781
2.104	0.044712
2.105	0.051045
2.106	0.046761
2.107	0.037464
2.108	0.027668
2.109	0.01771
2.11	0.004916
2.111	-0.011343
2.112	-0.024916
2.113	-0.026022
2.114	-0.010225
2.115	0.01787
2.116	0.04881
2.117	0.073937
2.118	0.088062
2.119	0.089329
2.12	0.078225
2.121	0.057199
2.122	0.0315
2.123	0.009115
2.124	-0.003038
2.125	-0.003612
2.126	0.003213
2.127	0.011654
2.128	0.017675
2.129	0.019309
2.13	0.015204
2.131	0.004466
2.132	-0.012193
2.133	-0.033286
2.134	-0.057935
2.135	-0.083994
2.136	-0.106033
2.137	-0.117298
2.138	-0.113347
2.139	-0.093863
2.14	-0.062622
2.141	-0.026992
2.142	0.003461
2.143	0.0207
2.144	0.022867
2.145	0.015396
2.146	0.006707
2.147	0.002443
2.148	0.002954
2.149	0.004594
2.15	0.00315
2.151	-0.001689
2.152	-0.003639
2.153	0.005984
2.154	0.029521
2.155	0.060102
2.156	0.08715
2.157	0.102657
2.158	0.103241
2.159	0.089132
2.16	0.06279
2.161	0.028993
2.162	-0.004365
2.163	-0.028207
2.164	-0.037368
2.165	-0.033645
2.166	-0.023453
2.167	-0.012884
2.168	-0.005002
2.169	-0.00091
2.17	-0.00189
2.171	-0.009454
2.172	-0.023701
2.173	-0.043405
2.174	-0.067296
2.175	-0.092677
2.176	-0.113729
2.177	-0.123694
2.178	-0.118547
2.179	-0.098585
2.18	-0.067974
2.181	-0.033475
2.182	-0.002795
2.183	0.017757
2.184	0.02593
2.185	0.02391
2.186	0.015562
2.187	0.004266
2.188	-0.005626
2.189	-0.006084
2.19	0.012682
2.191	0.054543
2.192	0.112291
2.193	0.171188
2.194	0.217288
2.195	0.243678
2.196	0.250406
2.197	0.239365
2.198	0.210728
2.199	0.165071
2.2	0.108125
2.201	0.051948
2.202	0.010005
2.203	-0.010206
2.204	-0.010939
2.205	-0.001603
2.206	0.007971
2.207	0.012924
2.208	0.013348
2.209	0.010606
2.21	0.004391
2.211	-0.006982
2.212	-0.024035
2.213	-0.045374
2.214	-0.068983
2.215	-0.091881
2.216	-0.109628
2.217	-0.118452
2.218	-0.117405
2.219	-0.107835
2.22	-0.091189
2.221	-0.068367
2.222	-0.041914
2.223	-0.017356
2.224	-0.000443
2.225	0.006942
2.226	0.007743
2.227	0.00693
2.228	0.007583
2.229	0.00897
2.23	0.00801
2.231	0.003829
2.232	0.001649
2.233	0.009382
2.234	0.029183
2.235	0.054985
2.236	0.077741
2.237	0.090793
2.238	0.091229
2.239	0.078546
2.24	0.054092
2.241	0.022374
2.242	-0.008538
2.243	-0.029991
2.244	-0.037806
2.245	-0.034639
2.246	-0.026916
2.247	-0.019912
2.248	-0.015796
2.249	-0.015022
2.25	-0.018355
2.251	-0.02659
2.252	-0.038797
2.253	-0.053572
2.254	-0.071391
2.255	-0.092343
2.256	-0.112663
2.257	-0.125713
2.258	-0.125557
2.259	-0.109726
2.26	-0.080499
2.261	-0.044843
2.262	-0.012555
2.263	0.007731
2.264	0.012806
2.265	0.006172
2.266	-0.004808
2.267	-0.013637
2.268	-0.01786
2.269	-0.019248
2.27	-0.021394
2.271	-0.025064
2.272	-0.024792
2.273	-0.012989
2.274	0.01155
2.275	0.041597
2.276	0.067122
2.277	0.080932
2.278	0.080193
2.279	0.065361
2.28	0.039437
2.281	0.008182
2.282	-0.020354
2.283	-0.038845
2.284	-0.044908
2.285	-0.041932
2.286	-0.035441
2.287	-0.029279
2.288	-0.024649
2.289	-0.021421
2.29	-0.02
2.291	-0.022076
2.292	-0.030273
2.293	-0.04764
2.294	-0.074492
2.295	-0.101889
2.296	-0.111062
2.297	-0.08637
2.298	-0.030691
2.299	0.03559
2.3	0.091207
2.301	0.126643
2.302	0.142288
2.303	0.140219
2.304	0.120562
2.305	0.085005
2.306	0.04172
2.307	0.004124
2.308	-0.017108
2.309	-0.021161
2.31	-0.01601
2.311	-0.009581
2.312	-0.001825
2.313	0.012873
2.314	0.036146
2.315	0.061996
2.316	0.082119
2.317	0.091737
2.318	0.090133
2.319	0.077739
2.32	0.054742
2.321	0.023457
2.322	-0.008966
2.323	-0.033128
2.324	-0.044402
2.325	-0.046517
2.326	-0.0475
2.327	-0.052273
2.328	-0.059116
2.329	-0.063035
2.33	-0.061859
2.331	-0.058274
2.332	-0.056631
2.333	-0.059724
2.334	-0.068121
2.335	-0.079766
2.336	-0.090164
2.337	-0.09459
2.338	-0.090249
2.339	-0.076776
2.34	-0.05612
2.341	-0.032452
2.342	-0.011364
2.343	0.002275
2.344	0.006899
2.345	0.004881
2.346	0.000455
2.347	-0.002862
2.348	-0.003689
2.349	-0.003121
2.35	-0.00354
2.351	-0.005311
2.352	-0.003966
2.353	0.00684
2.354	0.028407
2.355	0.054932
2.356	0.077907
2.357	0.090698
2.358	0.090033
2.359	0.0753
2.36	0.047898
2.361	0.012319
2.362	-0.022805
2.363	-0.047369
2.364	-0.055641
2.365	-0.049997
2.366	-0.038349
2.367	-0.027722
2.368	-0.020614
2.369	-0.016579
2.37	-0.0156
2.371	-0.019121
2.372	-0.028499
2.373	-0.04421
2.374	-0.065889
2.375	-0.090618
2.376	-0.11198
2.377	-0.122898
2.378	-0.119383
2.379	-0.101973
2.38	-0.075118
2.381	-0.045736
2.382	-0.021239
2.383	-0.006844
2.384	-0.003337
2.385	-0.007299
2.386	-0.01359
2.387	-0.017965
2.388	-0.018522
2.389	-0.015811
2.39	-0.011802
2.391	-0.007166
2.392	0.001366
2.393	0.018195
2.394	0.042494
2.395	0.06706
2.396	0.082822
2.397	0.083977
2.398	0.072245
2.399	0.05809
2.4	0.054881
2.401	0.068089
2.402	0.090614
2.403	0.110474
2.404	0.120849
2.405	0.121567
2.406	0.114653
2.407	0.100673
2.408	0.078665
2.409	0.049314
2.41	0.017285
2.411	-0.010703
2.412	-0.030354
2.413	-0.043236
2.414	-0.055331
2.415	-0.070455
2.416	-0.085951
2.417	-0.09527
2.418	-0.093325
2.419	-0.079577
2.42	-0.057578
2.421	-0.032896
2.422	-0.011508
2.423	0.001687
2.424	0.004742
2.425	-0.0003
2.426	-0.008432
2.427	-0.014382
2.428	-0.015144
2.429	-0.011144
2.43	-0.005693
2.431	-0.001746
2.432	0.001887
2.433	0.009119
2.434	0.021465
2.435	0.036818
2.436	0.05204
2.437	0.064168
2.438	0.069637
2.439	0.064477
2.44	0.046817
2.441	0.019836
2.442	-0.007914
2.443	-0.02666
2.444	-0.03181
2.445	-0.026559
2.446	-0.017919
2.447	-0.010781
2.448	-0.005818
2.449	-0.002131
2.45	-0.000838
2.451	-0.004901
2.452	-0.015899
2.453	-0.033033
2.454	-0.054478
2.455	-0.077339
2.456	-0.097157
2.457	-0.109157
2.458	-0.109975
2.459	-0.098489
2.46	-0.076394
2.461	-0.048977
2.462	-0.024367
2.463	-0.009918
2.464	-0.007959
2.465	-0.01469
2.466	-0.023203
2.467	-0.027868
2.468	-0.026838
2.469	-0.022045
2.47	-0.01706
2.471	-0.012974
2.472	-0.005658
2.473	0.010529
2.474	0.035718
2.475	0.062862
2.476	0.082445
2.477	0.08816
2.478	0.079575
2.479	0.060206
2.48	0.033456
2.481	0.001927
2.482	-0.029479
2.483	-0.053093
2.484	-0.063235
2.485	-0.060561
2.486	-0.051094
2.487	-0.041404
2.488	-0.034576
2.489	-0.030175
2.49	-0.027199
2.491	-0.026279
2.492	-0.029576
2.493	-0.039704
2.494	-0.057368
2.495	-0.078184
2.496	-0.093733
2.497	-0.097684
2.498	-0.089873
2.499	-0.074393
2.5	-0.054592
2.501	-0.02894
2.502	0.007868
2.503	0.056406
2.504	0.105691
2.505	0.139756
2.506	0.151705
2.507	0.148063
2.508	0.13876
2.509	0.125835
2.51	0.1052
2.511	0.079282
2.512	0.062802
2.513	0.070449
2.514	0.100558
2.515	0.136224
2.516	0.160392
2.517	0.165944
2.518	0.154979
2.519	0.133379
2.52	0.105546
2.521	0.072727
2.522	0.036863
2.523	0.005478
2.524	-0.01051
2.525	-0.006462
2.526	0.01016
2.527	0.025929
2.528	0.032844
2.529	0.032977
2.53	0.032467
2.531	0.033154
2.532	0.031633
2.533	0.023656
2.534	0.007515
2.535	-0.014372
2.536	-0.036407
2.537	-0.053204
2.538	-0.061772
2.539	-0.061487
2.54	-0.053943
2.541	-0.042236
2.542	-0.028611
2.543	-0.01289
2.544	0.005799
2.545	0.025803
2.546	0.042545
2.547	0.052008
2.548	0.054099
2.549	0.052429
2.55	0.051508
2.551	0.055249
2.552	0.067363
2.553	0.089215
2.554	0.116713
2.555	0.142172
2.556	0.158439
2.557	0.160761
2.558	0.147759
2.559	0.121768
2.56	0.087923
2.561	0.053328
2.562	0.025791
2.563	0.010474
2.564	0.006497
2.565	0.007725
2.566	0.007983
2.567	0.005562
2.568	0.00277
2.569	0.001952
2.57	0.00231
2.571	0.000748
2.572	-0.004815
2.573	-0.014687
2.574	-0.02862
2.575	-0.045068
2.576	-0.060164
2.577	-0.069014
2.578	-0.067999
2.579	-0.056394
2.58	-0.03661
2.581	-0.01363
2.582	0.006011
2.583	0.01675
2.584	0.017087
2.585	0.010492
2.586	0.003197
2.587	0.000629
2.588	0.005052
2.589	0.015242
2.59	0.027284
2.591	0.036888
2.592	0.042939
2.593	0.049453
2.594	0.065356
2.595	0.100793
2.596	0.15667
2.597	0.216269
2.598	0.253434
2.599	0.251606
2.6	0.214134
2.601	0.158805
2.602	0.105246
2.603	0.065364
2.604	0.041152
2.605	0.029015
2.606	0.025273
2.607	0.027575
2.608	0.033152
2.609	0.037731
2.61	0.036683
2.611	0.027983
2.612	0.013871
2.613	-0.001853
2.614	-0.017427
2.615	-0.03278
2.616	-0.046901
2.617	-0.056822
2.618	-0.059143
2.619	-0.052292
2.62	-0.037545
2.621	-0.018844
2.622	-0.001726
2.623	0.009066
2.624	0.01223
2.625	0.010335
2.626	0.007479
2.627	0.006404
2.628	0.007423
2.629	0.009031
2.63	0.009015
2.631	0.005988
2.632	7e-05
2.633	-0.008714
2.634	-0.021315
2.635	-0.037589
2.636	-0.054927
2.637	-0.069635
2.638	-0.078571
2.639	-0.079677
2.64	-0.072083
2.641	-0.056132
2.642	-0.033711
2.643	-0.009067
2.644	0.011617
2.645	0.023052
2.646	0.023897
2.647	0.01724
2.648	0.008151
2.649	0.000164
2.65	-0.006322
2.651	-0.012394
2.652	-0.018287
2.653	-0.023662
2.654	-0.029057
2.655	-0.035397
2.656	-0.042548
2.657	-0.049037
2.658	-0.052583
2.659	-0.050981
2.66	-0.043481
2.661	-0.031937
2.662	-0.020394
2.663	-0.012895
2.664	-0.010949
2.665	-0.012948
2.666	-0.016068
2.667	-0.01826
2.668	-0.018714
2.669	-0.017726
2.67	-0.016445
2.671	-0.015996
2.672	-0.017001
2.673	-0.02072
2.674	-0.02921
2.675	-0.042463
2.676	-0.056691
2.677	-0.066785
2.678	-0.069539
2.679	-0.064577
2.68	-0.053683
2.681	-0.039966
2.682	-0.027224
2.683	-0.018798
2.684	-0.015879
2.685	-0.01714
2.686	-0.020126
2.687	-0.022581
2.688	-0.023136
2.689	-0.021985
2.69	-0.020921
2.691	-0.021682
2.692	-0.024093
2.693	-0.026984
2.694	-0.030316
2.695	-0.034521
2.696	-0.038534
2.697	-0.039972
2.698	-0.036977
2.699	-0.029869
2.7	-0.021791
2.701	-0.017631
2.702	-0.020344
2.703	-0.02567
2.704	-0.021432
2.705	0.002607
2.706	0.042425
2.707	0.081602
2.708	0.106538
2.709	0.116487
2.71	0.118694
2.711	0.117586
2.712	0.110219
2.713	0.090735
2.714	0.058695
2.715	0.022906
2.716	-0.004336
2.717	-0.016679
2.718	-0.01652
2.719	-0.010065
2.72	-0.001815
2.721	0.006236
2.722	0.012287
2.723	0.014092
2.724	0.010796
2.725	0.003877
2.726	-0.00391
2.727	-0.009898
2.728	-0.012563
2.729	-0.012394
2.73	-0.011768
2.731	-0.012748
2.732	-0.01473
2.733	-0.015894
2.734	-0.016372
2.735	-0.017785
2.736	-0.020713
2.737	-0.024183
2.738	-0.026724
2.739	-0.027176
2.74	-0.02484
2.741	-0.019793
2.742	-0.013858
2.743	-0.010738
2.744	-0.013888
2.745	-0.023583
2.746	-0.035908
2.747	-0.044704
2.748	-0.044899
2.749	-0.035318
2.75	-0.019826
2.751	-0.005291
2.752	0.002747
2.753	0.002359
2.754	-0.005126
2.755	-0.015908
2.756	-0.025712
2.757	-0.032357
2.758	-0.035884
2.759	-0.036621
2.76	-0.033909
2.761	-0.026918
2.762	-0.016647
2.763	-0.006688
2.764	-0.001401
2.765	-0.002885
2.766	-0.00954
2.767	-0.017499
2.768	-0.023388
2.769	-0.026348
2.77	-0.028172
2.771	-0.030765
2.772	-0.033475
2.773	-0.034432
2.774	-0.033639
2.775	-0.032837
2.776	-0.033292
2.777	-0.034782
2.778	-0.03622
2.779	-0.036689
2.78	-0.035875
2.781	-0.034312
2.782	-0.033361
2.783	-0.034066
2.784	-0.036055
2.785	-0.037893
2.786	-0.038073
2.787	-0.035753
2.788	-0.031242
2.789	-0.026266
2.79	-0.023384
2.791	-0.023985
2.792	-0.026972
2.793	-0.030394
2.794	-0.033357
2.795	-0.035566
2.796	-0.036598
2.797	-0.036309
2.798	-0.035029
2.799	-0.032822
2.8	-0.029126
2.801	-0.02388
2.802	-0.018626
2.803	-0.015582
2.804	-0.015659
2.805	-0.01772
2.806	-0.019855
2.807	-0.0215
2.808	-0.024447
2.809	-0.030936
2.81	-0.038546
2.811	-0.036539
2.812	-0.012379
2.813	0.033457
2.814	0.082937
2.815	0.115578
2.816	0.125669
2.817	0.121979
2.818	0.114054
2.819	0.10259
2.82	0.08255
2.821	0.052918
2.822	0.021206
2.823	-0.001905
2.824	-0.010892
2.825	-0.008167
2.826	-0.000585
2.827	0.005856
2.828	0.00879
2.829	0.00846
2.83	0.005525
2.831	0.000641
2.832	-0.005093
2.833	-0.010802
2.834	-0.016354
2.835	-0.021429
2.836	-0.025179
2.837	-0.027353
2.838	-0.028491
2.839	-0.028532
2.84	-0.026258
2.841	-0.020952
2.842	-0.014273
2.843	-0.009548
2.844	-0.008899
2.845	-0.011575
2.846	-0.01496
2.847	-0.016569
2.848	-0.015593
2.849	-0.013682
2.85	-0.014196
2.851	-0.019542
2.852	-0.028873
2.853	-0.038893
2.854	-0.046226
2.855	-0.048286
2.856	-0.043616
2.857	-0.033185
2.858	-0.020913
2.859	-0.011903
2.86	-0.009408
2.861	-0.012793
2.862	-0.018397
2.863	-0.022466
2.864	-0.023238
2.865	-0.021117
2.866	-0.017655
2.867	-0.014082
2.868	-0.010739
2.869	-0.007792
2.87	-0.005814
2.871	-0.00507
2.872	-0.004897
2.873	-0.004993
2.874	-0.006485
2.875	-0.010383
2.876	-0.016053
2.877	-0.021909
2.878	-0.026475
2.879	-0.028424
2.88	-0.026583
2.881	-0.020984
2.882	-0.014068
2.883	-0.009594
2.884	-0.009575
2.885	-0.012874
2.886	-0.016738
2.887	-0.01901
2.888	-0.019236
2.889	-0.018543
2.89	-0.018673
2.891	-0.020276
2.892	-0.021963
2.893	-0.022223
2.894	-0.021563
2.895	-0.021422
2.896	-0.022309
2.897	-0.024004
2.898	-0.026421
2.899	-0.029648
2.9	-0.033274
2.901	-0.036095
2.902	-0.036981
2.903	-0.035864
2.904	-0.033667
2.905	-0.031495
2.906	-0.029701
2.907	-0.02758
2.908	-0.024283
2.909	-0.020127
2.91	-0.016712
2.911	-0.015404
2.912	-0.016607
2.913	-0.021407
2.914	-0.030936
2.915	-0.040699
2.916	-0.03814
2.917	-0.011583
2.918	0.036321
2.919	0.087125
2.92	0.121432
2.921	0.133585
2.922	0.130714
2.923	0.120967
2.924	0.105545
2.925	0.081363
2.926	0.04931
2.927	0.01763
2.928	-0.003623
2.929	-0.01065
2.93	-0.008086
2.931	-0.003622
2.932	-0.001555
2.933	-0.002121
2.934	-0.004528
2.935	-0.00841
2.936	-0.013637
2.937	-0.020007
2.938	-0.026875
2.939	-0.033042
2.94	-0.03703
2.941	-0.037551
2.942	-0.034197
2.943	-0.028035
2.944	-0.021339
2.945	-0.016174
2.946	-0.013186
2.947	-0.011851
2.948	-0.011527
2.949	-0.012213
2.95	-0.01435
2.951	-0.017306
2.952	-0.018828
2.953	-0.017536
2.954	-0.015008
2.955	-0.014365
2.956	-0.017847
2.957	-0.02573
2.958	-0.036199
2.959	-0.045713
2.96	-0.049956
2.961	-0.045841
2.962	-0.034055
2.963	-0.019749
2.964	-0.009521
2.965	-0.006823
2.966	-0.010333
2.967	-0.016276
2.968	-0.021439
2.969	-0.02454
2.97	-0.025803
2.971	-0.025379
2.972	-0.022912
2.973	-0.019233
2.974	-0.016763
2.975	-0.017138
2.976	-0.019665
2.977	-0.022437
2.978	-0.024187
2.979	-0.024873
2.98	-0.024899
2.981	-0.024231
2.982	-0.022548
2.983	-0.020111
2.984	-0.017919
2.985	-0.016911
2.986	-0.017403
2.987	-0.019011
2.988	-0.020827
2.989	-0.022272
2.99	-0.023636
2.991	-0.024979
2.992	-0.025296
2.993	-0.02397
2.994	-0.021839
2.995	-0.019827
2.996	-0.017996
2.997	-0.016477
2.998	-0.015921
2.999	-0.016698
3.0	-0.018503
3.001	-0.021023
3.002	-0.024377
3.003	-0.028367
3.004	-0.03164
3.005	-0.032449
3.006	-0.030475
3.007	-0.027161
3.008	-0.02415
3.009	-0.022306
3.01	-0.022033
3.011	-0.023277
3.012	-0.025221
3.013	-0.026909
3.014	-0.027901
3.015	-0.028043
3.016	-0.027786
3.017	-0.028987
3.018	-0.033335
3.019	-0.037823
3.02	-0.032542
3.021	-0.007123
3.022	0.037288
3.023	0.08491
3.024	0.117775
3.025	0.129875
3.026	0.127599
3.027	0.119212
3.028	0.106345
3.029	0.085241
3.03	0.054844
3.031	0.021961
3.032	-0.002718
3.033	-0.013175
3.034	-0.011651
3.035	-0.004757
3.036	0.001911
3.037	0.005833
3.038	0.006785
3.039	0.005223
3.04	0.001466
3.041	-0.0037
3.042	-0.008624
3.043	-0.011954
3.044	-0.013845
3.045	-0.015597
3.046	-0.018325
3.047	-0.021879
3.048	-0.024726
3.049	-0.024954
3.05	-0.0217
3.051	-0.015613
3.052	-0.008453
3.053	-0.003095
3.054	-0.002425
3.055	-0.006585
3.056	-0.012674
3.057	-0.017854
3.058	-0.021585
3.059	-0.025053
3.06	-0.029632
3.061	-0.035984
3.062	-0.043672
3.063	-0.050798
3.064	-0.054436
3.065	-0.052227
3.066	-0.043809
3.067	-0.031283
3.068	-0.018702
3.069	-0.010429
3.07	-0.008975
3.071	-0.013288
3.072	-0.01911
3.073	-0.02227
3.074	-0.02149
3.075	-0.01775
3.076	-0.012603
3.077	-0.007669
3.078	-0.004599
3.079	-0.004605
3.08	-0.007567
3.081	-0.011922
3.082	-0.015863
3.083	-0.0185
3.084	-0.020123
3.085	-0.021702
3.086	-0.023765
3.087	-0.025556
3.088	-0.025454
3.089	-0.02264
3.09	-0.018495
3.091	-0.015687
3.092	-0.015966
3.093	-0.019533
3.094	-0.025176
3.095	-0.030127
3.096	-0.031564
3.097	-0.029042
3.098	-0.024658
3.099	-0.021032
3.1	-0.019511
3.101	-0.019808
3.102	-0.020752
3.103	-0.021311
3.104	-0.021409
3.105	-0.021893
3.106	-0.023361
3.107	-0.025145
3.108	-0.025778
3.109	-0.024654
3.11	-0.022884
3.111	-0.021618
3.112	-0.02024
3.113	-0.017598
3.114	-0.013796
3.115	-0.00981
3.116	-0.006526
3.117	-0.004439
3.118	-0.003564
3.119	-0.003567
3.12	-0.004623
3.121	-0.008231
3.122	-0.01538
3.123	-0.021755
3.124	-0.015893
3.125	0.012917
3.126	0.06165
3.127	0.111546
3.128	0.142893
3.129	0.150146
3.13	0.141237
3.131	0.125988
3.132	0.107416
3.133	0.082738
3.134	0.051663
3.135	0.021549
3.136	0.002293
3.137	-0.00238
3.138	0.002969
3.139	0.010505
3.14	0.014757
3.141	0.014331
3.142	0.010394
3.143	0.004622
3.144	-0.001815
3.145	-0.008159
3.146	-0.013631
3.147	-0.017276
3.148	-0.018425
3.149	-0.017727
3.15	-0.017136
3.151	-0.017645
3.152	-0.017817
3.153	-0.015839
3.154	-0.011935
3.155	-0.007768
3.156	-0.004524
3.157	-0.002396
3.158	-0.001364
3.159	-0.001627
3.16	-0.003228
3.161	-0.005704
3.162	-0.008303
3.163	-0.010767
3.164	-0.013997
3.165	-0.019616
3.166	-0.028393
3.167	-0.038648
3.168	-0.046353
3.169	-0.047418
3.17	-0.040215
3.171	-0.026314
3.172	-0.009964
3.173	0.003018
3.174	0.008142
3.175	0.005548
3.176	-0.000599
3.177	-0.006142
3.178	-0.009352
3.179	-0.010293
3.18	-0.009821
3.181	-0.009369
3.182	-0.010374
3.183	-0.013177
3.184	-0.016635
3.185	-0.019275
3.186	-0.020716
3.187	-0.021591
3.188	-0.022537
3.189	-0.023917
3.19	-0.025872
3.191	-0.027652
3.192	-0.02767
3.193	-0.025465
3.194	-0.022558
3.195	-0.020367
3.196	-0.018531
3.197	-0.016079
3.198	-0.013228
3.199	-0.011444
3.2	-0.012075
3.201	-0.015036
3.202	-0.018716
3.203	-0.021198
3.204	-0.021732
3.205	-0.02136
3.206	-0.021972
3.207	-0.024394
3.208	-0.027641
3.209	-0.030054
3.21	-0.03071
3.211	-0.029502
3.212	-0.026671
3.213	-0.023323
3.214	-0.021251
3.215	-0.021039
3.216	-0.021467
3.217	-0.021132
3.218	-0.019735
3.219	-0.0179
3.22	-0.01632
3.221	-0.01528
3.222	-0.015326
3.223	-0.018134
3.224	-0.02566
3.225	-0.036795
3.226	-0.043266
3.227	-0.030912
3.228	0.008931
3.229	0.066876
3.23	0.118863
3.231	0.145709
3.232	0.147078
3.233	0.135326
3.234	0.120188
3.235	0.102081
3.236	0.077629
3.237	0.048175
3.238	0.021134
3.239	0.003627
3.24	-0.002994
3.241	-0.002189
3.242	0.001877
3.243	0.006495
3.244	0.009911
3.245	0.010578
3.246	0.007699
3.247	0.00206
3.248	-0.004277
3.249	-0.009355
3.25	-0.012442
3.251	-0.013482
3.252	-0.012385
3.253	-0.010041
3.254	-0.008429
3.255	-0.008397
3.256	-0.008817
3.257	-0.008317
3.258	-0.006789
3.259	-0.004997
3.26	-0.003267
3.261	-0.001418
3.262	0.000155
3.263	0.00051
3.264	-0.000835
3.265	-0.003725
3.266	-0.007881
3.267	-0.013219
3.268	-0.019706
3.269	-0.027282
3.27	-0.035764
3.271	-0.043737
3.272	-0.047866
3.273	-0.045235
3.274	-0.036265
3.275	-0.024428
3.276	-0.013696
3.277	-0.006477
3.278	-0.003232
3.279	-0.003246
3.28	-0.005181
3.281	-0.007247
3.282	-0.007847
3.283	-0.006643
3.284	-0.004925
3.285	-0.004553
3.286	-0.006343
3.287	-0.009436
3.288	-0.012127
3.289	-0.013466
3.29	-0.014083
3.291	-0.014867
3.292	-0.015466
3.293	-0.015162
3.294	-0.014108
3.295	-0.012884
3.296	-0.011989
3.297	-0.012022
3.298	-0.013285
3.299	-0.014697
3.3	-0.014006
3.301	-0.010006
3.302	-0.0042
3.303	0.000159
3.304	0.00058
3.305	-0.003011
3.306	-0.008604
3.307	-0.013709
3.308	-0.016882
3.309	-0.018613
3.31	-0.020739
3.311	-0.023986
3.312	-0.026736
3.313	-0.027237
3.314	-0.02559
3.315	-0.022858
3.316	-0.0198
3.317	-0.016978
3.318	-0.015139
3.319	-0.014867
3.32	-0.015814
3.321	-0.016362
3.322	-0.014565
3.323	-0.010083
3.324	-0.004878
3.325	-0.001669
3.326	-0.002344
3.327	-0.007814
3.328	-0.017632
3.329	-0.02759
3.33	-0.027263
3.331	-0.003861
3.332	0.045328
3.333	0.104233
3.334	0.14773
3.335	0.162022
3.336	0.152752
3.337	0.134164
3.338	0.114414
3.339	0.092283
3.34	0.065317
3.341	0.037572
3.342	0.017603
3.343	0.010177
3.344	0.01219
3.345	0.016337
3.346	0.017013
3.347	0.013097
3.348	0.006959
3.349	0.001454
3.35	-0.002278
3.351	-0.004435
3.352	-0.005416
3.353	-0.006116
3.354	-0.007963
3.355	-0.011277
3.356	-0.014433
3.357	-0.015359
3.358	-0.013315
3.359	-0.009215
3.36	-0.004522
3.361	0.000315
3.362	0.005917
3.363	0.012038
3.364	0.016586
3.365	0.017175
3.366	0.013176
3.367	0.006282
3.368	-0.000768
3.369	-0.006375
3.37	-0.01112
3.371	-0.01641
3.372	-0.022659
3.373	-0.029495
3.374	-0.036338
3.375	-0.041368
3.376	-0.041342
3.377	-0.034031
3.378	-0.020586
3.379	-0.004983
3.38	0.00843
3.381	0.016689
3.382	0.018719
3.383	0.015513
3.384	0.009633
3.385	0.003676
3.386	-0.000841
3.387	-0.003315
3.388	-0.003799
3.389	-0.003375
3.39	-0.0041
3.391	-0.007487
3.392	-0.013277
3.393	-0.020314
3.394	-0.027372
3.395	-0.03262
3.396	-0.033978
3.397	-0.0307
3.398	-0.024263
3.399	-0.01787
3.4	-0.014608
3.401	-0.015233
3.402	-0.017662
3.403	-0.0187
3.404	-0.016636
3.405	-0.012724
3.406	-0.009761
3.407	-0.009144
3.408	-0.009904
3.409	-0.01068
3.41	-0.011796
3.411	-0.014518
3.412	-0.018976
3.413	-0.024107
3.414	-0.028678
3.415	-0.031611
3.416	-0.032278
3.417	-0.030772
3.418	-0.027662
3.419	-0.02366
3.42	-0.019436
3.421	-0.015572
3.422	-0.012582
3.423	-0.010669
3.424	-0.009608
3.425	-0.008993
3.426	-0.008339
3.427	-0.007146
3.428	-0.005408
3.429	-0.004737
3.43	-0.00861
3.431	-0.018837
3.432	-0.029923
3.433	-0.028656
3.434	-0.003069
3.435	0.044885
3.436	0.096799
3.437	0.131768
3.438	0.142612
3.439	0.136997
3.44	0.125522
3.441	0.11135
3.442	0.09104
3.443	0.063435
3.444	0.034813
3.445	0.014367
3.446	0.006527
3.447	0.008598
3.448	0.014258
3.449	0.017768
3.45	0.015985
3.451	0.009298
3.452	0.000915
3.453	-0.006322
3.454	-0.011942
3.455	-0.016455
3.456	-0.019509
3.457	-0.020056
3.458	-0.01781
3.459	-0.013885
3.46	-0.009906
3.461	-0.006914
3.462	-0.005
3.463	-0.003641
3.464	-0.002432
3.465	-0.001553
3.466	-0.0015
3.467	-0.002311
3.468	-0.003102
3.469	-0.00293
3.47	-0.001943
3.471	-0.001007
3.472	-0.001357
3.473	-0.005303
3.474	-0.014907
3.475	-0.029009
3.476	-0.043055
3.477	-0.052079
3.478	-0.053127
3.479	-0.045706
3.48	-0.031907
3.481	-0.0164
3.482	-0.004504
3.483	0.001125
3.484	0.001746
3.485	0.000387
3.486	-0.000996
3.487	-0.002071
3.488	-0.003071
3.489	-0.00449
3.49	-0.007015
3.491	-0.010225
3.492	-0.012438
3.493	-0.013174
3.494	-0.01427
3.495	-0.017665
3.496	-0.023248
3.497	-0.029073
3.498	-0.032816
3.499	-0.033022
3.5	-0.029731
3.501	-0.024226
3.502	-0.018206
3.503	-0.013288
3.504	-0.010597
3.505	-0.010158
3.506	-0.011037
3.507	-0.012176
3.508	-0.012963
3.509	-0.013495
3.51	-0.014308
3.511	-0.015458
3.512	-0.016654
3.513	-0.018621
3.514	-0.022791
3.515	-0.029112
3.516	-0.035386
3.517	-0.038963
3.518	-0.038459
3.519	-0.034324
3.52	-0.02864
3.521	-0.023986
3.522	-0.021772
3.523	-0.021537
3.524	-0.021757
3.525	-0.021143
3.526	-0.019285
3.527	-0.016332
3.528	-0.012655
3.529	-0.009314
3.53	-0.008168
3.531	-0.010765
3.532	-0.017798
3.533	-0.028943
3.534	-0.039449
3.535	-0.036786
3.536	-0.00762
3.537	0.046929
3.538	0.106592
3.539	0.14711
3.54	0.158908
3.541	0.149743
3.542	0.132178
3.543	0.111584
3.544	0.086079
3.545	0.055125
3.546	0.024958
3.547	0.004876
3.548	-0.000432
3.549	0.005722
3.55	0.015279
3.551	0.02143
3.552	0.021642
3.553	0.016053
3.554	0.005462
3.555	-0.008398
3.556	-0.022446
3.557	-0.033288
3.558	-0.038554
3.559	-0.037629
3.56	-0.031641
3.561	-0.022994
3.562	-0.014674
3.563	-0.009119
3.564	-0.007084
3.565	-0.007595
3.566	-0.008854
3.567	-0.009256
3.568	-0.008295
3.569	-0.007046
3.57	-0.007439
3.571	-0.010293
3.572	-0.014531
3.573	-0.01917
3.574	-0.024705
3.575	-0.031757
3.576	-0.039929
3.577	-0.04814
3.578	-0.055024
3.579	-0.059224
3.58	-0.059634
3.581	-0.055346
3.582	-0.045941
3.583	-0.032602
3.584	-0.018914
3.585	-0.00943
3.586	-0.00642
3.587	-0.008165
3.588	-0.010783
3.589	-0.011731
3.59	-0.011572
3.591	-0.012431
3.592	-0.015839
3.593	-0.022601
3.594	-0.032585
3.595	-0.043649
3.596	-0.052575
3.597	-0.057424
3.598	-0.058115
3.599	-0.055216
3.6	-0.049121
3.601	-0.040736
3.602	-0.032368
3.603	-0.026913
3.604	-0.025919
3.605	-0.028473
3.606	-0.0317
3.607	-0.032548
3.608	-0.029729
3.609	-0.024762
3.61	-0.02112
3.611	-0.021181
3.612	-0.024474
3.613	-0.029624
3.614	-0.035964
3.615	-0.042626
3.616	-0.048106
3.617	-0.051338
3.618	-0.052528
3.619	-0.052662
3.62	-0.052142
3.621	-0.050191
3.622	-0.045887
3.623	-0.039787
3.624	-0.034117
3.625	-0.030914
3.626	-0.030047
3.627	-0.029307
3.628	-0.026469
3.629	-0.0213
3.63	-0.014827
3.631	-0.005485
3.632	0.011985
3.633	0.040572
3.634	0.074685
3.635	0.102478
3.636	0.115998
3.637	0.119717
3.638	0.127175
3.639	0.146159
3.64	0.168043
3.641	0.175724
3.642	0.161892
3.643	0.135337
3.644	0.109396
3.645	0.088629
3.646	0.06807
3.647	0.043017
3.648	0.016865
3.649	-0.001835
3.65	-0.00838
3.651	-0.005768
3.652	-0.001392
3.653	-0.002278
3.654	-0.011534
3.655	-0.026883
3.656	-0.042662
3.657	-0.053775
3.658	-0.058088
3.659	-0.056173
3.66	-0.049887
3.661	-0.041126
3.662	-0.03139
3.663	-0.022301
3.664	-0.015694
3.665	-0.012312
3.666	-0.010812
3.667	-0.008642
3.668	-0.004126
3.669	0.002056
3.67	0.008381
3.671	0.016572
3.672	0.032334
3.673	0.059307
3.674	0.093251
3.675	0.12386
3.676	0.141027
3.677	0.13886
3.678	0.116655
3.679	0.078691
3.68	0.033228
3.681	-0.009022
3.682	-0.037487
3.683	-0.046465
3.684	-0.038993
3.685	-0.024866
3.686	-0.013694
3.687	-0.009091
3.688	-0.008666
3.689	-0.008819
3.69	-0.008783
3.691	-0.010318
3.692	-0.015639
3.693	-0.026495
3.694	-0.04296
3.695	-0.061724
3.696	-0.076865
3.697	-0.083285
3.698	-0.079587
3.699	-0.068462
3.7	-0.055085
3.701	-0.044572
3.702	-0.039463
3.703	-0.038751
3.704	-0.039425
3.705	-0.038951
3.706	-0.036113
3.707	-0.030487
3.708	-0.022642
3.709	-0.014804
3.71	-0.009252
3.711	-0.004281
3.712	0.006763
3.713	0.029487
3.714	0.061871
3.715	0.094779
3.716	0.117699
3.717	0.123464
3.718	0.109697
3.719	0.078707
3.72	0.037345
3.721	-0.004134
3.722	-0.035596
3.723	-0.051627
3.724	-0.053872
3.725	-0.048932
3.726	-0.043092
3.727	-0.038413
3.728	-0.033478
3.729	-0.02711
3.73	-0.020749
3.731	-0.017432
3.732	-0.019941
3.733	-0.030336
3.734	-0.048727
3.735	-0.071528
3.736	-0.092866
3.737	-0.107004
3.738	-0.107018
3.739	-0.083499
3.74	-0.031039
3.741	0.041271
3.742	0.110136
3.743	0.153319
3.744	0.164303
3.745	0.152074
3.746	0.129674
3.747	0.104254
3.748	0.076444
3.749	0.046823
3.75	0.020948
3.751	0.008189
3.752	0.016039
3.753	0.043926
3.754	0.082019
3.755	0.116903
3.756	0.138442
3.757	0.142375
3.758	0.128954
3.759	0.100921
3.76	0.063212
3.761	0.02334
3.762	-0.010023
3.763	-0.030555
3.764	-0.037553
3.765	-0.035452
3.766	-0.029429
3.767	-0.021774
3.768	-0.012364
3.769	-0.001837
3.77	0.006468
3.771	0.008193
3.772	0.000491
3.773	-0.01733
3.774	-0.042905
3.775	-0.069807
3.776	-0.089826
3.777	-0.097533
3.778	-0.093118
3.779	-0.081484
3.78	-0.068584
3.781	-0.058033
3.782	-0.049889
3.783	-0.041712
3.784	-0.031417
3.785	-0.019715
3.786	-0.009476
3.787	-0.002897
3.788	6.9e-05
3.789	0.000485
3.79	-0.000578
3.791	0.000214
3.792	0.009341
3.793	0.031175
3.794	0.062379
3.795	0.093038
3.796	0.112839
3.797	0.11615
3.798	0.102419
3.799	0.074197
3.8	0.036447
3.801	-0.003127
3.802	-0.035425
3.803	-0.054081
3.804	-0.059136
3.805	-0.055753
3.806	-0.049295
3.807	-0.042069
3.808	-0.034083
3.809	-0.026042
3.81	-0.020782
3.811	-0.021436
3.812	-0.029863
3.813	-0.046948
3.814	-0.071325
3.815	-0.097323
3.816	-0.116498
3.817	-0.121965
3.818	-0.11165
3.819	-0.088693
3.82	-0.059847
3.821	-0.033163
3.822	-0.015304
3.823	-0.009101
3.824	-0.012675
3.825	-0.020761
3.826	-0.027493
3.827	-0.029007
3.828	-0.024886
3.829	-0.018167
3.83	-0.012454
3.831	-0.006816
3.832	0.004972
3.833	0.027654
3.834	0.058033
3.835	0.086585
3.836	0.104307
3.837	0.106789
3.838	0.09278
3.839	0.062063
3.84	0.018212
3.841	-0.025025
3.842	-0.044069
3.843	-0.020995
3.844	0.037742
3.845	0.102824
3.846	0.145416
3.847	0.157317
3.848	0.149014
3.849	0.132754
3.85	0.110723
3.851	0.078474
3.852	0.035215
3.853	-0.012202
3.854	-0.05351
3.855	-0.080866
3.856	-0.091687
3.857	-0.087999
3.858	-0.073942
3.859	-0.053818
3.86	-0.03187
3.861	-0.012685
3.862	-0.000586
3.863	0.002195
3.864	-0.002895
3.865	-0.01133
3.866	-0.01804
3.867	-0.019677
3.868	-0.015826
3.869	-0.009019
3.87	-0.002188
3.871	0.005706
3.872	0.019885
3.873	0.04321
3.874	0.07112
3.875	0.094935
3.876	0.108586
3.877	0.11103
3.878	0.103504
3.879	0.085844
3.88	0.056674
3.881	0.018226
3.882	-0.020603
3.883	-0.048613
3.884	-0.059713
3.885	-0.055535
3.886	-0.04225
3.887	-0.026268
3.888	-0.01236
3.889	-0.00379
3.89	-0.002418
3.891	-0.008364
3.892	-0.020825
3.893	-0.039474
3.894	-0.063217
3.895	-0.087696
3.896	-0.106146
3.897	-0.113056
3.898	-0.106708
3.899	-0.089202
3.9	-0.065014
3.901	-0.039752
3.902	-0.0194
3.903	-0.008705
3.904	-0.008941
3.905	-0.017279
3.906	-0.028346
3.907	-0.036731
3.908	-0.039393
3.909	-0.036748
3.91	-0.030921
3.911	-0.021786
3.912	-0.006142
3.913	0.017342
3.914	0.044382
3.915	0.067699
3.916	0.081503
3.917	0.082966
3.918	0.071162
3.919	0.046545
3.92	0.01269
3.921	-0.022142
3.922	-0.047614
3.923	-0.057636
3.924	-0.054724
3.925	-0.047399
3.926	-0.042788
3.927	-0.041991
3.928	-0.041983
3.929	-0.040715
3.93	-0.039849
3.931	-0.042741
3.932	-0.051416
3.933	-0.066154
3.934	-0.085388
3.935	-0.104785
3.936	-0.118286
3.937	-0.121061
3.938	-0.111573
3.939	-0.09156
3.94	-0.065154
3.941	-0.038729
3.942	-0.020353
3.943	-0.015943
3.944	-0.022683
3.945	-0.025752
3.946	-0.005812
3.947	0.044094
3.948	0.108419
3.949	0.159702
3.95	0.180807
3.951	0.176877
3.952	0.166354
3.953	0.161431
3.954	0.159034
3.955	0.149832
3.956	0.131176
3.957	0.108742
3.958	0.088161
3.959	0.068949
3.96	0.047438
3.961	0.023591
3.962	0.002888
3.963	-0.008986
3.964	-0.012099
3.965	-0.011765
3.966	-0.012913
3.967	-0.016189
3.968	-0.019184
3.969	-0.020583
3.97	-0.022306
3.971	-0.027316
3.972	-0.037051
3.973	-0.051425
3.974	-0.068765
3.975	-0.085324
3.976	-0.096426
3.977	-0.098442
3.978	-0.089931
3.979	-0.071658
3.98	-0.046524
3.981	-0.020039
3.982	0.00034
3.983	0.008346
3.984	0.002606
3.985	-0.012264
3.986	-0.028034
3.987	-0.036782
3.988	-0.034404
3.989	-0.022833
3.99	-0.008431
3.991	0.004246
3.992	0.016416
3.993	0.031444
3.994	0.049437
3.995	0.066785
3.996	0.079108
3.997	0.083305
3.998	0.0777
3.999	0.061993
4.0	0.038008
4.001	0.010545
4.002	-0.013417
4.003	-0.028397
4.004	-0.034111
4.005	-0.03468
4.006	-0.034398
4.007	-0.034742
4.008	-0.034981
4.009	-0.035172
4.01	-0.037628
4.011	-0.044811
4.012	-0.05723
4.013	-0.073973
4.014	-0.093155
4.015	-0.11111
4.016	-0.122653
4.017	-0.123222
4.018	-0.11118
4.019	-0.088633
4.02	-0.060467
4.021	-0.032577
4.022	-0.010567
4.023	0.00123
4.024	0.001484
4.025	-0.006889
4.026	-0.018106
4.027	-0.026698
4.028	-0.030381
4.029	-0.030929
4.03	-0.031331
4.031	-0.030722
4.032	-0.023586
4.033	-0.00577
4.034	0.020209
4.035	0.046821
4.036	0.066533
4.037	0.074596
4.038	0.069098
4.039	0.050386
4.04	0.021572
4.041	-0.01014
4.042	-0.034791
4.043	-0.045165
4.044	-0.041674
4.045	-0.031947
4.046	-0.02595
4.047	-0.029831
4.048	-0.041068
4.049	-0.04744
4.05	-0.033319
4.051	0.007033
4.052	0.059586
4.053	0.097612
4.054	0.102805
4.055	0.07892
4.056	0.04461
4.057	0.016355
4.058	-0.00076
4.059	-0.009519
4.06	-0.01232
4.061	-0.008206
4.062	0.003044
4.063	0.017061
4.064	0.026997
4.065	0.028531
4.066	0.022407
4.067	0.013034
4.068	0.004729
4.069	-0.001254
4.07	-0.005834
4.071	-0.007778
4.072	-0.002143
4.073	0.014571
4.074	0.039301
4.075	0.064219
4.076	0.08203
4.077	0.088769
4.078	0.083247
4.079	0.066322
4.08	0.04193
4.081	0.017218
4.082	-0.00067
4.083	-0.008811
4.084	-0.00988
4.085	-0.009507
4.086	-0.011884
4.087	-0.017421
4.088	-0.023822
4.089	-0.028968
4.09	-0.032898
4.091	-0.036772
4.092	-0.040984
4.093	-0.045958
4.094	-0.053308
4.095	-0.064236
4.096	-0.076942
4.097	-0.085962
4.098	-0.084865
4.099	-0.070686
4.1	-0.045915
4.101	-0.016847
4.102	0.009909
4.103	0.030934
4.104	0.046188
4.105	0.055
4.106	0.054644
4.107	0.045395
4.108	0.034199
4.109	0.02976
4.11	0.03505
4.111	0.046987
4.112	0.061224
4.113	0.074826
4.114	0.087065
4.115	0.099666
4.116	0.113886
4.117	0.126137
4.118	0.12855
4.119	0.11598
4.12	0.092021
4.121	0.066696
4.122	0.048974
4.123	0.041993
4.124	0.043332
4.125	0.048229
4.126	0.052976
4.127	0.056132
4.128	0.057433
4.129	0.055743
4.13	0.048144
4.131	0.03231
4.132	0.009395
4.133	-0.016564
4.134	-0.040458
4.135	-0.056962
4.136	-0.062063
4.137	-0.054572
4.138	-0.035898
4.139	-0.008823
4.14	0.023269
4.141	0.056156
4.142	0.083889
4.143	0.099324
4.144	0.098695
4.145	0.088432
4.146	0.085685
4.147	0.106066
4.148	0.147723
4.149	0.19044
4.15	0.213382
4.151	0.212983
4.152	0.202478
4.153	0.196053
4.154	0.196363
4.155	0.196387
4.156	0.189588
4.157	0.17623
4.158	0.160697
4.159	0.145371
4.16	0.128951
4.161	0.110245
4.162	0.091917
4.163	0.078846
4.164	0.073028
4.165	0.071613
4.166	0.069943
4.167	0.065591
4.168	0.059334
4.169	0.052597
4.17	0.045132
4.171	0.035668
4.172	0.022803
4.173	0.004847
4.174	-0.018149
4.175	-0.041308
4.176	-0.055798
4.177	-0.054035
4.178	-0.034881
4.179	-0.00463
4.18	0.026841
4.181	0.051447
4.182	0.065879
4.183	0.071001
4.184	0.06949
4.185	0.06387
4.186	0.055696
4.187	0.045841
4.188	0.035058
4.189	0.023987
4.19	0.014222
4.191	0.010999
4.192	0.022415
4.193	0.052342
4.194	0.094209
4.195	0.133316
4.196	0.155751
4.197	0.155953
4.198	0.137856
4.199	0.110338
4.2	0.081502
4.201	0.056494
4.202	0.038545
4.203	0.029012
4.204	0.025987
4.205	0.024859
4.206	0.021525
4.207	0.015201
4.208	0.007973
4.209	0.001645
4.21	-0.004473
4.211	-0.012599
4.212	-0.024955
4.213	-0.043464
4.214	-0.067966
4.215	-0.093568
4.216	-0.111856
4.217	-0.115867
4.218	-0.103962
4.219	-0.080062
4.22	-0.051119
4.221	-0.023661
4.222	-0.001686
4.223	0.013225
4.224	0.020866
4.225	0.021626
4.226	0.016666
4.227	0.008563
4.228	0.000585
4.229	-0.005252
4.23	-0.008254
4.231	-0.006345
4.232	0.004251
4.233	0.024135
4.234	0.047837
4.235	0.067854
4.236	0.079746
4.237	0.082783
4.238	0.077708
4.239	0.065144
4.24	0.046383
4.241	0.025416
4.242	0.008516
4.243	0.000108
4.244	-0.000881
4.245	0.000237
4.246	-0.001107
4.247	-0.005284
4.248	-0.009601
4.249	-0.012285
4.25	-0.015182
4.251	-0.022499
4.252	-0.037672
4.253	-0.061352
4.254	-0.090048
4.255	-0.116043
4.256	-0.130501
4.257	-0.127855
4.258	-0.108281
4.259	-0.077502
4.26	-0.044266
4.261	-0.016604
4.262	0.001316
4.263	0.010073
4.264	0.012796
4.265	0.012079
4.266	0.009285
4.267	0.005723
4.268	0.002749
4.269	0.000272
4.27	-0.002957
4.271	-0.005423
4.272	-0.001487
4.273	0.013098
4.274	0.036142
4.275	0.060559
4.276	0.078863
4.277	0.086057
4.278	0.080272
4.279	0.062553
4.28	0.037091
4.281	0.011042
4.282	-0.00782
4.283	-0.015294
4.284	-0.013524
4.285	-0.00895
4.286	-0.006889
4.287	-0.00806
4.288	-0.009911
4.289	-0.011044
4.29	-0.013987
4.291	-0.02308
4.292	-0.040941
4.293	-0.067084
4.294	-0.097055
4.295	-0.122765
4.296	-0.136085
4.297	-0.132809
4.298	-0.113673
4.299	-0.083086
4.3	-0.047647
4.301	-0.014836
4.302	0.009048
4.303	0.021099
4.304	0.022302
4.305	0.016169
4.306	0.007088
4.307	-0.000832
4.308	-0.005071
4.309	-0.006274
4.31	-0.007052
4.311	-0.00698
4.312	-0.000914
4.313	0.015159
4.314	0.038634
4.315	0.061866
4.316	0.077653
4.317	0.082604
4.318	0.076564
4.319	0.061029
4.32	0.038952
4.321	0.015013
4.322	-0.005216
4.323	-0.01794
4.324	-0.023851
4.325	-0.027197
4.326	-0.03113
4.327	-0.034216
4.328	-0.032461
4.329	-0.02514
4.33	-0.017292
4.331	-0.015837
4.332	-0.02511
4.333	-0.045672
4.334	-0.07372
4.335	-0.101157
4.336	-0.118791
4.337	-0.120766
4.338	-0.106527
4.339	-0.079743
4.34	-0.046421
4.341	-0.013543
4.342	0.012512
4.343	0.027882
4.344	0.032213
4.345	0.028043
4.346	0.019375
4.347	0.010419
4.348	0.004225
4.349	0.0011
4.35	-0.000467
4.351	0.000289
4.352	0.007431
4.353	0.023262
4.354	0.044453
4.355	0.064517
4.356	0.078289
4.357	0.083053
4.358	0.077061
4.359	0.059277
4.36	0.031569
4.361	0.000993
4.362	-0.022102
4.363	-0.030928
4.364	-0.027335
4.365	-0.018894
4.366	-0.011162
4.367	-0.003382
4.368	0.007938
4.369	0.022058
4.37	0.034932
4.371	0.050257
4.372	0.083204
4.373	0.143773
4.374	0.218259
4.375	0.275061
4.376	0.290002
4.377	0.263833
4.378	0.216817
4.379	0.168773
4.38	0.124379
4.381	0.076904
4.382	0.023722
4.383	-0.02537
4.384	-0.055696
4.385	-0.061018
4.386	-0.047971
4.387	-0.029025
4.388	-0.013673
4.389	-0.005787
4.39	-0.004982
4.391	-0.007316
4.392	-0.007113
4.393	-0.001568
4.394	0.007415
4.395	0.01632
4.396	0.022526
4.397	0.023702
4.398	0.01701
4.399	0.000436
4.4	-0.024134
4.401	-0.04898
4.402	-0.063832
4.403	-0.063375
4.404	-0.051573
4.405	-0.038201
4.406	-0.031152
4.407	-0.031581
4.408	-0.035495
4.409	-0.039328
4.41	-0.043811
4.411	-0.052811
4.412	-0.07005
4.413	-0.096945
4.414	-0.130511
4.415	-0.162592
4.416	-0.183383
4.417	-0.186651
4.418	-0.171918
4.419	-0.143141
4.42	-0.106463
4.421	-0.068976
4.422	-0.037846
4.423	-0.018294
4.424	-0.011566
4.425	-0.014936
4.426	-0.023361
4.427	-0.03158
4.428	-0.036144
4.429	-0.036806
4.43	-0.035522
4.431	-0.032867
4.432	-0.027179
4.433	-0.018619
4.434	-0.010743
4.435	-0.006775
4.436	-0.00684
4.437	-0.009209
4.438	-0.013241
4.439	-0.020705
4.44	-0.033065
4.441	-0.04719
4.442	-0.055628
4.443	-0.052805
4.444	-0.040807
4.445	-0.027919
4.446	-0.021424
4.447	-0.02249
4.448	-0.027436
4.449	-0.032909
4.45	-0.039188
4.451	-0.048652
4.452	-0.063448
4.453	-0.085101
4.454	-0.112703
4.455	-0.140639
4.456	-0.160404
4.457	-0.165176
4.458	-0.152799
4.459	-0.125744
4.46	-0.089671
4.461	-0.052349
4.462	-0.022146
4.463	-0.004966
4.464	-0.001545
4.465	-0.007672
4.466	-0.017135
4.467	-0.024838
4.468	-0.028361
4.469	-0.028556
4.47	-0.028772
4.471	-0.03142
4.472	-0.034637
4.473	-0.031462
4.474	-0.01145
4.475	0.031796
4.476	0.090361
4.477	0.143227
4.478	0.171356
4.479	0.170632
4.48	0.150311
4.481	0.122061
4.482	0.09219
4.483	0.062369
4.484	0.034324
4.485	0.011848
4.486	-0.001555
4.487	-0.005675
4.488	-0.003973
4.489	-0.002041
4.49	-0.00517
4.491	-0.015723
4.492	-0.03341
4.493	-0.057725
4.494	-0.087173
4.495	-0.116559
4.496	-0.13785
4.497	-0.144222
4.498	-0.133306
4.499	-0.107625
4.5	-0.073128
4.501	-0.037382
4.502	-0.00781
4.503	0.010336
4.504	0.015835
4.505	0.01165
4.506	0.002915
4.507	-0.005565
4.508	-0.010992
4.509	-0.013235
4.51	-0.013101
4.511	-0.009101
4.512	0.001843
4.513	0.019435
4.514	0.038451
4.515	0.052821
4.516	0.059288
4.517	0.057065
4.518	0.045848
4.519	0.025344
4.52	-0.003052
4.521	-0.033915
4.522	-0.058168
4.523	-0.068265
4.524	-0.063955
4.525	-0.052123
4.526	-0.040905
4.527	-0.034268
4.528	-0.031708
4.529	-0.031878
4.53	-0.035079
4.531	-0.04235
4.532	-0.054498
4.533	-0.072371
4.534	-0.09547
4.535	-0.119643
4.536	-0.137709
4.537	-0.143135
4.538	-0.133597
4.539	-0.111773
4.54	-0.083548
4.541	-0.05579
4.542	-0.034982
4.543	-0.025596
4.544	-0.027892
4.545	-0.037399
4.546	-0.047146
4.547	-0.051092
4.548	-0.047039
4.549	-0.037173
4.55	-0.024859
4.551	-0.010196
4.552	0.009315
4.553	0.03281
4.554	0.054108
4.555	0.066944
4.556	0.069654
4.557	0.064259
4.558	0.05297
4.559	0.036691
4.56	0.016577
4.561	-0.003733
4.562	-0.018501
4.563	-0.023598
4.564	-0.020066
4.565	-0.013522
4.566	-0.009672
4.567	-0.010679
4.568	-0.016177
4.569	-0.026503
4.57	-0.041769
4.571	-0.056242
4.572	-0.058103
4.573	-0.040551
4.574	-0.011413
4.575	0.01325
4.576	0.024826
4.577	0.028693
4.578	0.035751
4.579	0.050003
4.58	0.06512
4.581	0.071724
4.582	0.06656
4.583	0.054605
4.584	0.043457
4.585	0.036788
4.586	0.033226
4.587	0.029997
4.588	0.02599
4.589	0.021422
4.59	0.016911
4.591	0.014822
4.592	0.019133
4.593	0.031159
4.594	0.047292
4.595	0.061999
4.596	0.070942
4.597	0.071331
4.598	0.061586
4.599	0.042
4.6	0.016173
4.601	-0.008761
4.602	-0.024998
4.603	-0.028739
4.604	-0.02282
4.605	-0.014275
4.606	-0.008706
4.607	-0.006995
4.608	-0.006918
4.609	-0.007166
4.61	-0.009352
4.611	-0.016115
4.612	-0.029292
4.613	-0.05011
4.614	-0.077722
4.615	-0.106951
4.616	-0.129732
4.617	-0.139244
4.618	-0.132958
4.619	-0.113032
4.62	-0.084731
4.621	-0.05443
4.622	-0.027863
4.623	-0.008681
4.624	0.002189
4.625	0.006206
4.626	0.006274
4.627	0.005435
4.628	0.005455
4.629	0.006007
4.63	0.006156
4.631	0.007816
4.632	0.015594
4.633	0.031372
4.634	0.051275
4.635	0.068498
4.636	0.077406
4.637	0.075452
4.638	0.062926
4.639	0.042272
4.64	0.018098
4.641	-0.003361
4.642	-0.016557
4.643	-0.019791
4.644	-0.016205
4.645	-0.010939
4.646	-0.007329
4.647	-0.005676
4.648	-0.004781
4.649	-0.004747
4.65	-0.00823
4.651	-0.018339
4.652	-0.036752
4.653	-0.063727
4.654	-0.096398
4.655	-0.126947
4.656	-0.145452
4.657	-0.145667
4.658	-0.128278
4.659	-0.099266
4.66	-0.065775
4.661	-0.03348
4.662	-0.006579
4.663	0.011795
4.664	0.020514
4.665	0.0215
4.666	0.018867
4.667	0.016528
4.668	0.015881
4.669	0.015059
4.67	0.01158
4.671	0.006837
4.672	0.006285
4.673	0.015324
4.674	0.03801
4.675	0.077535
4.676	0.13127
4.677	0.184899
4.678	0.218273
4.679	0.220962
4.68	0.199926
4.681	0.17106
4.682	0.14511
4.683	0.121513
4.684	0.094219
4.685	0.062113
4.686	0.032347
4.687	0.013841
4.688	0.009235
4.689	0.013005
4.69	0.016292
4.691	0.013185
4.692	0.002075
4.693	-0.017107
4.694	-0.043455
4.695	-0.073097
4.696	-0.099113
4.697	-0.114253
4.698	-0.114182
4.699	-0.099235
4.7	-0.07397
4.701	-0.045073
4.702	-0.019163
4.703	-0.001181
4.704	0.007082
4.705	0.007501
4.706	0.00421
4.707	0.001182
4.708	0.000188
4.709	0.000348
4.71	0.000722
4.711	0.0042
4.712	0.016456
4.713	0.039013
4.714	0.065363
4.715	0.085251
4.716	0.091489
4.717	0.08272
4.718	0.061617
4.719	0.032034
4.72	-0.001615
4.721	-0.033084
4.722	-0.055069
4.723	-0.063258
4.724	-0.059216
4.725	-0.048818
4.726	-0.038058
4.727	-0.029935
4.728	-0.024543
4.729	-0.021403
4.73	-0.02109
4.731	-0.024774
4.732	-0.033849
4.733	-0.050161
4.734	-0.073863
4.735	-0.100605
4.736	-0.12258
4.737	-0.132591
4.738	-0.127391
4.739	-0.108642
4.74	-0.081759
4.741	-0.053804
4.742	-0.03121
4.743	-0.017535
4.744	-0.012593
4.745	-0.013839
4.746	-0.018219
4.747	-0.023107
4.748	-0.026987
4.749	-0.029758
4.75	-0.030929
4.751	-0.026445
4.752	-0.010096
4.753	0.019163
4.754	0.053462
4.755	0.081036
4.756	0.093461
4.757	0.088424
4.758	0.067914
4.759	0.035709
4.76	-0.002804
4.761	-0.03989
4.762	-0.066982
4.763	-0.078374
4.764	-0.074151
4.765	-0.059728
4.766	-0.042082
4.767	-0.025871
4.768	-0.012535
4.769	-0.002381
4.77	0.003141
4.771	0.001275
4.772	-0.011661
4.773	-0.038853
4.774	-0.076577
4.775	-0.108031
4.776	-0.109327
4.777	-0.067691
4.778	0.004929
4.779	0.079152
4.78	0.130534
4.781	0.153834
4.782	0.157531
4.783	0.149737
4.784	0.13171
4.785	0.102995
4.786	0.069148
4.787	0.041311
4.788	0.027849
4.789	0.02792
4.79	0.034555
4.791	0.043829
4.792	0.057974
4.793	0.078605
4.794	0.101109
4.795	0.117226
4.796	0.120805
4.797	0.110612
4.798	0.088941
4.799	0.059115
4.8	0.025324
4.801	-0.006222
4.802	-0.028341
4.803	-0.036875
4.804	-0.033679
4.805	-0.024704
4.806	-0.015232
4.807	-0.007283
4.808	-0.000798
4.809	0.003524
4.81	0.003337
4.811	-0.003232
4.812	-0.016508
4.813	-0.036337
4.814	-0.061207
4.815	-0.086635
4.816	-0.106594
4.817	-0.116475
4.818	-0.114646
4.819	-0.102028
4.82	-0.081084
4.821	-0.055803
4.822	-0.031859
4.823	-0.014983
4.824	-0.007864
4.825	-0.008454
4.826	-0.011722
4.827	-0.013247
4.828	-0.011679
4.829	-0.008723
4.83	-0.005935
4.831	-0.000413
4.832	0.013774
4.833	0.038116
4.834	0.066129
4.835	0.08795
4.836	0.09679
4.837	0.091131
4.838	0.072766
4.839	0.044696
4.84	0.01132
4.841	-0.020536
4.842	-0.042956
4.843	-0.051507
4.844	-0.048468
4.845	-0.04043
4.846	-0.032902
4.847	-0.027276
4.848	-0.022245
4.849	-0.017584
4.85	-0.015678
4.851	-0.019351
4.852	-0.030185
4.853	-0.048647
4.854	-0.072865
4.855	-0.09739
4.856	-0.115139
4.857	-0.120889
4.858	-0.113137
4.859	-0.093865
4.86	-0.067526
4.861	-0.040037
4.862	-0.017584
4.863	-0.004689
4.864	-0.001977
4.865	-0.005949
4.866	-0.011623
4.867	-0.015638
4.868	-0.017649
4.869	-0.019464
4.87	-0.021514
4.871	-0.019101
4.872	-0.00496
4.873	0.022122
4.874	0.053278
4.875	0.075276
4.876	0.0795
4.877	0.06779
4.878	0.05303
4.879	0.05245
4.88	0.07498
4.881	0.113012
4.882	0.148314
4.883	0.16673
4.884	0.166625
4.885	0.154554
4.886	0.135976
4.887	0.111751
4.888	0.082264
4.889	0.051896
4.89	0.027239
4.891	0.011174
4.892	-0.000259
4.893	-0.014489
4.894	-0.035156
4.895	-0.058366
4.896	-0.076157
4.897	-0.082525
4.898	-0.076285
4.899	-0.0602
4.9	-0.039019
4.901	-0.018252
4.902	-0.003143
4.903	0.003377
4.904	0.002372
4.905	-0.002119
4.906	-0.005729
4.907	-0.005546
4.908	-0.000933
4.909	0.00616
4.91	0.012979
4.911	0.019937
4.912	0.030955
4.913	0.048137
4.914	0.068653
4.915	0.087443
4.916	0.100248
4.917	0.103902
4.918	0.095578
4.919	0.073174
4.92	0.037893
4.921	-0.003023
4.922	-0.037895
4.923	-0.057213
4.924	-0.059614
4.925	-0.051308
4.926	-0.039959
4.927	-0.029618
4.928	-0.020779
4.929	-0.013736
4.93	-0.010616
4.931	-0.013778
4.932	-0.024072
4.933	-0.041263
4.934	-0.063358
4.935	-0.085231
4.936	-0.100144
4.937	-0.103136
4.938	-0.093377
4.939	-0.074408
4.94	-0.052505
4.941	-0.034201
4.942	-0.02373
4.943	-0.021293
4.944	-0.023665
4.945	-0.026698
4.946	-0.027368
4.947	-0.024473
4.948	-0.018575
4.949	-0.011564
4.95	-0.004865
4.951	0.003329
4.952	0.016752
4.953	0.035749
4.954	0.05633
4.955	0.074243
4.956	0.086873
4.957	0.091891
4.958	0.086207
4.959	0.06714
4.96	0.035469
4.961	-0.002334
4.962	-0.035717
4.963	-0.055586
4.964	-0.059791
4.965	-0.05334
4.966	-0.043262
4.967	-0.033749
4.968	-0.025768
4.969	-0.020059
4.97	-0.018836
4.971	-0.023681
4.972	-0.034091
4.973	-0.048998
4.974	-0.066984
4.975	-0.08519
4.976	-0.100342
4.977	-0.110697
4.978	-0.115684
4.979	-0.112184
4.98	-0.091271
4.981	-0.042485
4.982	0.033687
4.983	0.117515
4.984	0.179686
4.985	0.20288
4.986	0.192716
4.987	0.167889
4.988	0.142397
4.989	0.117524
4.99	0.089609
4.991	0.063056
4.992	0.050634
4.993	0.060261
4.994	0.086573
4.995	0.115671
4.996	0.134659
4.997	0.137268
4.998	0.12358
4.999	0.096837
5.0	0.061362
5.001	0.022928
5.002	-0.010771
5.003	-0.032802
5.004	-0.041202
5.005	-0.039645
5.006	-0.033777
5.007	-0.027299
5.008	-0.021325
5.009	-0.016845
5.01	-0.016015
5.011	-0.020196
5.012	-0.029207
5.013	-0.042849
5.014	-0.060194
5.015	-0.077581
5.016	-0.089308
5.017	-0.090556
5.018	-0.080025
5.019	-0.060698
5.02	-0.038552
5.021	-0.020002
5.022	-0.009265
5.023	-0.007034
5.024	-0.010965
5.025	-0.017285
5.026	-0.022457
5.027	-0.024239
5.028	-0.022314
5.029	-0.018308
5.03	-0.013528
5.031	-0.005655
5.032	0.00969
5.033	0.032853
5.034	0.058254
5.035	0.078741
5.036	0.089674
5.037	0.089414
5.038	0.078341
5.039	0.058434
5.04	0.033177
5.041	0.007277
5.042	-0.014279
5.043	-0.02819
5.044	-0.034565
5.045	-0.036379
5.046	-0.036797
5.047	-0.036731
5.048	-0.035215
5.049	-0.0323
5.05	-0.030382
5.051	-0.032018
5.052	-0.038471
5.053	-0.050564
5.054	-0.067761
5.055	-0.086245
5.056	-0.100089
5.057	-0.104385
5.058	-0.097134
5.059	-0.079703
5.06	-0.056611
5.061	-0.034212
5.062	-0.018238
5.063	-0.011395
5.064	-0.012635
5.065	-0.01855
5.066	-0.025174
5.067	-0.029047
5.068	-0.028464
5.069	-0.024504
5.07	-0.019228
5.071	-0.011438
5.072	0.003496
5.073	0.02773
5.074	0.057258
5.075	0.084597
5.076	0.102758
5.077	0.107272
5.078	0.096779
5.079	0.072479
5.08	0.037584
5.081	-0.001488
5.082	-0.032823
5.083	-0.040161
5.084	-0.012191
5.085	0.044607
5.086	0.10518
5.087	0.143623
5.088	0.15211
5.089	0.140681
5.09	0.121485
5.091	0.097312
5.092	0.063721
5.093	0.018891
5.094	-0.029189
5.095	-0.066108
5.096	-0.081629
5.097	-0.075818
5.098	-0.056487
5.099	-0.033155
5.1	-0.01255
5.101	0.002615
5.102	0.01205
5.103	0.015727
5.104	0.013283
5.105	0.005249
5.106	-0.005468
5.107	-0.014197
5.108	-0.01731
5.109	-0.014613
5.11	-0.008065
5.111	0.002859
5.112	0.022155
5.113	0.051622
5.114	0.086492
5.115	0.117342
5.116	0.134864
5.117	0.133842
5.118	0.114678
5.119	0.082612
5.12	0.045815
5.121	0.012725
5.122	-0.010733
5.123	-0.023
5.124	-0.027105
5.125	-0.028322
5.126	-0.030225
5.127	-0.032608
5.128	-0.033177
5.129	-0.031349
5.13	-0.029781
5.131	-0.031694
5.132	-0.038691
5.133	-0.051178
5.134	-0.067369
5.135	-0.08227
5.136	-0.090404
5.137	-0.089213
5.138	-0.079363
5.139	-0.062934
5.14	-0.042331
5.141	-0.020825
5.142	-0.002806
5.143	0.007624
5.144	0.008631
5.145	0.001622
5.146	-0.009396
5.147	-0.019712
5.148	-0.026125
5.149	-0.028296
5.15	-0.026922
5.151	-0.019483
5.152	-0.000891
5.153	0.029806
5.154	0.066212
5.155	0.098321
5.156	0.117684
5.157	0.120178
5.158	0.106152
5.159	0.079476
5.16	0.046526
5.161	0.014875
5.162	-0.008759
5.163	-0.02143
5.164	-0.025698
5.165	-0.027393
5.166	-0.030823
5.167	-0.035921
5.168	-0.039768
5.169	-0.040754
5.17	-0.040573
5.171	-0.042014
5.172	-0.047011
5.173	-0.05655
5.174	-0.069336
5.175	-0.081047
5.176	-0.086866
5.177	-0.08435
5.178	-0.07409
5.179	-0.058866
5.18	-0.042746
5.181	-0.030413
5.182	-0.025646
5.183	-0.027917
5.184	-0.02857
5.185	-0.012324
5.186	0.031309
5.187	0.094642
5.188	0.152948
5.189	0.182745
5.19	0.180063
5.191	0.161599
5.192	0.148001
5.193	0.145943
5.194	0.147175
5.195	0.142318
5.196	0.130929
5.197	0.117961
5.198	0.104872
5.199	0.087788
5.2	0.063655
5.201	0.035916
5.202	0.013043
5.203	0.00132
5.204	-0.000541
5.205	0.000401
5.206	-0.002164
5.207	-0.009046
5.208	-0.016555
5.209	-0.021433
5.21	-0.023865
5.211	-0.026132
5.212	-0.030807
5.213	-0.039928
5.214	-0.052663
5.215	-0.064196
5.216	-0.069127
5.217	-0.065544
5.218	-0.055285
5.219	-0.041369
5.22	-0.026019
5.221	-0.01076
5.222	0.002442
5.223	0.01109
5.224	0.013405
5.225	0.009122
5.226	-0.0005
5.227	-0.012611
5.228	-0.023601
5.229	-0.03129
5.23	-0.035843
5.231	-0.038058
5.232	-0.038602
5.233	-0.039206
5.234	-0.041578
5.235	-0.044928
5.236	-0.046508
5.237	-0.044218
5.238	-0.038039
5.239	-0.029557
5.24	-0.020629
5.241	-0.01246
5.242	-0.005609
5.243	-0.00044
5.244	0.002408
5.245	0.001746
5.246	-0.003342
5.247	-0.011946
5.248	-0.021201
5.249	-0.028291
5.25	-0.032306
5.251	-0.033952
5.252	-0.035016
5.253	-0.038129
5.254	-0.044207
5.255	-0.05039
5.256	-0.052598
5.257	-0.049229
5.258	-0.041441
5.259	-0.031096
5.26	-0.019431
5.261	-0.00757
5.262	0.002707
5.263	0.009602
5.264	0.012049
5.265	0.009436
5.266	0.001819
5.267	-0.009041
5.268	-0.019805
5.269	-0.027772
5.27	-0.032633
5.271	-0.035384
5.272	-0.037193
5.273	-0.039758
5.274	-0.043829
5.275	-0.047264
5.276	-0.046696
5.277	-0.040814
5.278	-0.031441
5.279	-0.021947
5.28	-0.014557
5.281	-0.009166
5.282	-0.005148
5.283	-0.003862
5.284	-0.007665
5.285	-0.014185
5.286	-0.011568
5.287	0.015632
5.288	0.070316
5.289	0.13361
5.29	0.177404
5.291	0.18732
5.292	0.170037
5.293	0.140274
5.294	0.107025
5.295	0.071973
5.296	0.036171
5.297	0.005337
5.298	-0.012592
5.299	-0.014463
5.3	-0.005138
5.301	0.005941
5.302	0.011406
5.303	0.010353
5.304	0.006755
5.305	0.003954
5.306	0.00152
5.307	-0.002595
5.308	-0.008418
5.309	-0.013924
5.31	-0.017368
5.311	-0.017903
5.312	-0.015932
5.313	-0.013753
5.314	-0.013051
5.315	-0.012329
5.316	-0.008957
5.317	-0.002663
5.318	0.003948
5.319	0.00787
5.32	0.008323
5.321	0.007044
5.322	0.006589
5.323	0.008323
5.324	0.011273
5.325	0.012555
5.326	0.00938
5.327	0.001317
5.328	-0.009262
5.329	-0.019288
5.33	-0.026826
5.331	-0.030632
5.332	-0.030591
5.333	-0.029002
5.334	-0.028418
5.335	-0.028602
5.336	-0.027347
5.337	-0.023247
5.338	-0.016686
5.339	-0.008756
5.34	-0.000385
5.341	0.007224
5.342	0.012389
5.343	0.013876
5.344	0.011674
5.345	0.006477
5.346	-0.00123
5.347	-0.010876
5.348	-0.020965
5.349	-0.029613
5.35	-0.035459
5.351	-0.037512
5.352	-0.036156
5.353	-0.034347
5.354	-0.034786
5.355	-0.036462
5.356	-0.036081
5.357	-0.032059
5.358	-0.02612
5.359	-0.021573
5.36	-0.020432
5.361	-0.021724
5.362	-0.022312
5.363	-0.01961
5.364	-0.013865
5.365	-0.008215
5.366	-0.006541
5.367	-0.010604
5.368	-0.018978
5.369	-0.028765
5.37	-0.037307
5.371	-0.042003
5.372	-0.041171
5.373	-0.036146
5.374	-0.030251
5.375	-0.025496
5.376	-0.021554
5.377	-0.017465
5.378	-0.013221
5.379	-0.009381
5.38	-0.005789
5.381	-0.00193
5.382	0.000876
5.383	-0.000892
5.384	-0.00847
5.385	-0.014697
5.386	-0.004407
5.387	0.034045
5.388	0.094287
5.389	0.151682
5.39	0.181936
5.391	0.179637
5.392	0.156643
5.393	0.125961
5.394	0.092146
5.395	0.055281
5.396	0.018948
5.397	-0.008204
5.398	-0.018788
5.399	-0.013188
5.4	0.00109
5.401	0.015454
5.402	0.024984
5.403	0.029015
5.404	0.028999
5.405	0.02572
5.406	0.018125
5.407	0.004658
5.408	-0.014698
5.409	-0.037609
5.41	-0.05928
5.411	-0.072959
5.412	-0.073623
5.413	-0.06262
5.414	-0.046322
5.415	-0.030341
5.416	-0.016843
5.417	-0.006117
5.418	0.001517
5.419	0.005769
5.42	0.007613
5.421	0.009387
5.422	0.012889
5.423	0.017614
5.424	0.021161
5.425	0.020985
5.426	0.015907
5.427	0.006777
5.428	-0.003918
5.429	-0.013501
5.43	-0.02026
5.431	-0.023108
5.432	-0.022068
5.433	-0.019596
5.434	-0.018514
5.435	-0.018772
5.436	-0.018446
5.437	-0.016757
5.438	-0.0148
5.439	-0.013993
5.44	-0.014483
5.441	-0.015266
5.442	-0.015414
5.443	-0.014516
5.444	-0.012704
5.445	-0.011043
5.446	-0.011165
5.447	-0.01405
5.448	-0.019425
5.449	-0.026527
5.45	-0.03457
5.451	-0.04162
5.452	-0.045076
5.453	-0.044337
5.454	-0.040855
5.455	-0.035849
5.456	-0.029754
5.457	-0.023233
5.458	-0.017839
5.459	-0.015481
5.46	-0.01679
5.461	-0.020158
5.462	-0.022875
5.463	-0.023225
5.464	-0.021609
5.465	-0.019891
5.466	-0.019787
5.467	-0.021799
5.468	-0.025269
5.469	-0.029384
5.47	-0.033598
5.471	-0.036509
5.472	-0.036484
5.473	-0.034127
5.474	-0.031558
5.475	-0.029691
5.476	-0.027948
5.477	-0.02553
5.478	-0.022065
5.479	-0.017456
5.48	-0.011847
5.481	-0.006315
5.482	-0.00287
5.483	-0.003123
5.484	-0.007612
5.485	-0.016608
5.486	-0.029347
5.487	-0.039628
5.488	-0.033602
5.489	0.001428
5.49	0.062023
5.491	0.12591
5.492	0.167404
5.493	0.175501
5.494	0.158413
5.495	0.132432
5.496	0.107077
5.497	0.081063
5.498	0.05066
5.499	0.018613
5.5	-0.006387
5.501	-0.017176
5.502	-0.013685
5.503	-0.002326
5.504	0.008878
5.505	0.014804
5.506	0.01433
5.507	0.008956
5.508	0.000922
5.509	-0.00842
5.51	-0.018384
5.511	-0.026976
5.512	-0.031562
5.513	-0.032108
5.514	-0.03132
5.515	-0.031784
5.516	-0.034033
5.517	-0.036131
5.518	-0.034472
5.519	-0.026142
5.52	-0.011642
5.521	0.004695
5.522	0.01737
5.523	0.023245
5.524	0.022898
5.525	0.018932
5.526	0.013456
5.527	0.007399
5.528	0.001129
5.529	-0.005418
5.53	-0.012138
5.531	-0.017509
5.532	-0.019948
5.533	-0.020388
5.534	-0.020891
5.535	-0.021573
5.536	-0.020931
5.537	-0.018361
5.538	-0.015191
5.539	-0.013405
5.54	-0.013756
5.541	-0.015109
5.542	-0.015575
5.543	-0.014251
5.544	-0.011781
5.545	-0.009794
5.546	-0.010009
5.547	-0.013201
5.548	-0.018783
5.549	-0.025597
5.55	-0.032392
5.551	-0.037221
5.552	-0.038501
5.553	-0.037267
5.554	-0.036074
5.555	-0.035923
5.556	-0.036095
5.557	-0.036147
5.558	-0.036423
5.559	-0.036845
5.56	-0.03635
5.561	-0.033884
5.562	-0.029772
5.563	-0.025903
5.564	-0.024277
5.565	-0.025574
5.566	-0.029019
5.567	-0.033017
5.568	-0.036047
5.569	-0.037673
5.57	-0.038645
5.571	-0.039719
5.572	-0.041463
5.573	-0.044956
5.574	-0.050192
5.575	-0.054302
5.576	-0.053447
5.577	-0.046257
5.578	-0.035116
5.579	-0.024581
5.58	-0.018131
5.581	-0.015971
5.582	-0.01589
5.583	-0.015698
5.584	-0.014662
5.585	-0.013512
5.586	-0.013491
5.587	-0.01536
5.588	-0.019765
5.589	-0.02815
5.59	-0.040151
5.591	-0.047317
5.592	-0.033505
5.593	0.011477
5.594	0.078029
5.595	0.140317
5.596	0.175296
5.597	0.17798
5.598	0.159237
5.599	0.132056
5.6	0.10201
5.601	0.069298
5.602	0.036172
5.603	0.009525
5.604	-0.004135
5.605	-0.004732
5.606	0.001488
5.607	0.007417
5.608	0.009577
5.609	0.008064
5.61	0.004301
5.611	-7.3e-05
5.612	-0.004492
5.613	-0.01058
5.614	-0.019353
5.615	-0.028139
5.616	-0.032798
5.617	-0.031762
5.618	-0.026697
5.619	-0.020464
5.62	-0.01535
5.621	-0.012803
5.622	-0.01365
5.623	-0.017652
5.624	-0.023103
5.625	-0.027233
5.626	-0.027359
5.627	-0.022584
5.628	-0.014829
5.629	-0.008104
5.63	-0.005835
5.631	-0.007871
5.632	-0.011461
5.633	-0.015201
5.634	-0.019227
5.635	-0.022517
5.636	-0.022941
5.637	-0.019517
5.638	-0.013652
5.639	-0.008399
5.64	-0.00628
5.641	-0.007305
5.642	-0.009154
5.643	-0.009508
5.644	-0.008155
5.645	-0.006808
5.646	-0.007173
5.647	-0.009375
5.648	-0.01212
5.649	-0.014369
5.65	-0.016151
5.651	-0.017399
5.652	-0.018264
5.653	-0.020656
5.654	-0.026321
5.655	-0.034064
5.656	-0.040935
5.657	-0.04494
5.658	-0.045698
5.659	-0.0432
5.66	-0.037088
5.661	-0.027771
5.662	-0.01762
5.663	-0.010042
5.664	-0.007136
5.665	-0.008647
5.666	-0.013084
5.667	-0.018865
5.668	-0.024531
5.669	-0.029458
5.67	-0.03406
5.671	-0.038078
5.672	-0.040455
5.673	-0.041516
5.674	-0.042774
5.675	-0.044847
5.676	-0.04697
5.677	-0.047832
5.678	-0.046563
5.679	-0.043189
5.68	-0.038298
5.681	-0.032577
5.682	-0.026827
5.683	-0.022027
5.684	-0.01859
5.685	-0.015877
5.686	-0.013306
5.687	-0.011042
5.688	-0.009002
5.689	-0.006827
5.69	-0.004758
5.691	-0.003254
5.692	-0.003632
5.693	-0.008491
5.694	-0.016099
5.695	-0.014471
5.696	0.011683
5.697	0.06379
5.698	0.122794
5.699	0.164322
5.7	0.178569
5.701	0.1727
5.702	0.157735
5.703	0.137677
5.704	0.11089
5.705	0.078714
5.706	0.049545
5.707	0.033512
5.708	0.03445
5.709	0.047123
5.71	0.060955
5.711	0.066918
5.712	0.062411
5.713	0.051462
5.714	0.041438
5.715	0.037234
5.716	0.036969
5.717	0.035687
5.718	0.033245
5.719	0.034434
5.72	0.041336
5.721	0.050232
5.722	0.05691
5.723	0.061469
5.724	0.066281
5.725	0.071434
5.726	0.074446
5.727	0.073001
5.728	0.065712
5.729	0.051672
5.73	0.032518
5.731	0.015302
5.732	0.009646
5.733	0.019617
5.734	0.039836
5.735	0.05989
5.736	0.071929
5.737	0.075259
5.738	0.074625
5.739	0.074793
5.74	0.077473
5.741	0.082039
5.742	0.086998
5.743	0.090557
5.744	0.090789
5.745	0.086215
5.746	0.07716
5.747	0.066522
5.748	0.058313
5.749	0.054918
5.75	0.055705
5.751	0.05802
5.752	0.058286
5.753	0.053059
5.754	0.042256
5.755	0.030671
5.756	0.023964
5.757	0.023933
5.758	0.028094
5.759	0.032377
5.76	0.034031
5.761	0.033019
5.762	0.031356
5.763	0.031192
5.764	0.033008
5.765	0.035347
5.766	0.036648
5.767	0.037081
5.768	0.037974
5.769	0.039575
5.77	0.040552
5.771	0.040316
5.772	0.039672
5.773	0.038607
5.774	0.036275
5.775	0.033067
5.776	0.030463
5.777	0.029191
5.778	0.028414
5.779	0.026728
5.78	0.023995
5.781	0.021885
5.782	0.022239
5.783	0.025294
5.784	0.029919
5.785	0.035224
5.786	0.04125
5.787	0.047475
5.788	0.050893
5.789	0.047389
5.79	0.038352
5.791	0.036037
5.792	0.055174
5.793	0.095366
5.794	0.137817
5.795	0.162201
5.796	0.162773
5.797	0.148372
5.798	0.13133
5.799	0.117562
5.8	0.105173
5.801	0.090603
5.802	0.074729
5.803	0.062256
5.804	0.056248
5.805	0.054999
5.806	0.054357
5.807	0.051856
5.808	0.047897
5.809	0.043378
5.81	0.038025
5.811	0.032065
5.812	0.026829
5.813	0.022567
5.814	0.018546
5.815	0.015164
5.816	0.013823
5.817	0.01523
5.818	0.01856
5.819	0.02215
5.82	0.024909
5.821	0.026839
5.822	0.028234
5.823	0.028804
5.824	0.027854
5.825	0.025172
5.826	0.021449
5.827	0.01804
5.828	0.016287
5.829	0.016225
5.83	0.016228
5.831	0.014789
5.832	0.011119
5.833	0.003994
5.834	-0.00702
5.835	-0.019814
5.836	-0.031247
5.837	-0.039315
5.838	-0.0427
5.839	-0.039386
5.84	-0.027896
5.841	-0.010491
5.842	0.006435
5.843	0.016439
5.844	0.017493
5.845	0.01245
5.846	0.005902
5.847	0.001205
5.848	-0.000492
5.849	-0.000284
5.85	-0.000262
5.851	-0.00109
5.852	-0.002226
5.853	-0.004336
5.854	-0.008596
5.855	-0.014073
5.856	-0.018007
5.857	-0.018561
5.858	-0.016647
5.859	-0.01505
5.86	-0.015989
5.861	-0.019516
5.862	-0.023926
5.863	-0.027305
5.864	-0.028546
5.865	-0.027504
5.866	-0.024852
5.867	-0.021542
5.868	-0.018304
5.869	-0.015939
5.87	-0.014976
5.871	-0.014448
5.872	-0.013102
5.873	-0.012066
5.874	-0.01376
5.875	-0.018418
5.876	-0.023381
5.877	-0.02552
5.878	-0.023787
5.879	-0.019688
5.88	-0.01584
5.881	-0.014292
5.882	-0.015829
5.883	-0.019904
5.884	-0.024761
5.885	-0.028383
5.886	-0.029858
5.887	-0.029573
5.888	-0.028417
5.889	-0.027341
5.89	-0.026728
5.891	-0.025462
5.892	-0.022397
5.893	-0.018884
5.894	-0.017124
5.895	-0.016701
5.896	-0.015515
5.897	-0.013987
5.898	-0.016645
5.899	-0.02756
5.9	-0.042213
5.901	-0.045566
5.902	-0.023903
5.903	0.0199
5.904	0.067177
5.905	0.100199
5.906	0.115179
5.907	0.119561
5.908	0.120062
5.909	0.115029
5.91	0.098566
5.911	0.07094
5.912	0.041408
5.913	0.01999
5.914	0.010035
5.915	0.00877
5.916	0.011397
5.917	0.014104
5.918	0.015082
5.919	0.014129
5.92	0.011879
5.921	0.009031
5.922	0.005469
5.923	0.000361
5.924	-0.006367
5.925	-0.013263
5.926	-0.018343
5.927	-0.020502
5.928	-0.019991
5.929	-0.018102
5.93	-0.016191
5.931	-0.014429
5.932	-0.012675
5.933	-0.012411
5.934	-0.015134
5.935	-0.019438
5.936	-0.021953
5.937	-0.020481
5.938	-0.015763
5.939	-0.011062
5.94	-0.009914
5.941	-0.013714
5.942	-0.021176
5.943	-0.029622
5.944	-0.036791
5.945	-0.04173
5.946	-0.044062
5.947	-0.043085
5.948	-0.038428
5.949	-0.031495
5.95	-0.024843
5.951	-0.019234
5.952	-0.013506
5.953	-0.007926
5.954	-0.004496
5.955	-0.00399
5.956	-0.005006
5.957	-0.005671
5.958	-0.005367
5.959	-0.004783
5.96	-0.004587
5.961	-0.004863
5.962	-0.00592
5.963	-0.008619
5.964	-0.01342
5.965	-0.019613
5.966	-0.025779
5.967	-0.030688
5.968	-0.033596
5.969	-0.034522
5.97	-0.034254
5.971	-0.033341
5.972	-0.032441
5.973	-0.03354
5.974	-0.037834
5.975	-0.043176
5.976	-0.045933
5.977	-0.04437
5.978	-0.039425
5.979	-0.033248
5.98	-0.027855
5.981	-0.024983
5.982	-0.025872
5.983	-0.030241
5.984	-0.03604
5.985	-0.040837
5.986	-0.043419
5.987	-0.043982
5.988	-0.043341
5.989	-0.042643
5.99	-0.042719
5.991	-0.042521
5.992	-0.04021
5.993	-0.036381
5.994	-0.033435
5.995	-0.032329
5.996	-0.032347
5.997	-0.033552
5.998	-0.037714
5.999	-0.044711
6.0	-0.047029
6.001	-0.031135
6.002	0.010061
6.003	0.065598
6.004	0.112497
6.005	0.135047
6.006	0.135231
6.007	0.125027
6.008	0.112466
6.009	0.096239
6.01	0.072713
6.011	0.045457
6.012	0.023711
6.013	0.012667
6.014	0.010064
6.015	0.010838
6.016	0.0114
6.017	0.010786
6.018	0.010163
6.019	0.01127
6.02	0.014188
6.021	0.016271
6.022	0.013914
6.023	0.005784
6.024	-0.005795
6.025	-0.016723
6.026	-0.024139
6.027	-0.027458
6.028	-0.027474
6.029	-0.025637
6.03	-0.023135
6.031	-0.019427
6.032	-0.013548
6.033	-0.007243
6.034	-0.004071
6.035	-0.005374
6.036	-0.009029
6.037	-0.011942
6.038	-0.012801
6.039	-0.01253
6.04	-0.012853
6.041	-0.014756
6.042	-0.018402
6.043	-0.023808
6.044	-0.030502
6.045	-0.036737
6.046	-0.03981
6.047	-0.037216
6.048	-0.028171
6.049	-0.015195
6.05	-0.003414
6.051	0.003052
6.052	0.003105
6.053	-0.002558
6.054	-0.012005
6.055	-0.02176
6.056	-0.02821
6.057	-0.02955
6.058	-0.026037
6.059	-0.018925
6.06	-0.009867
6.061	-0.001246
6.062	0.003798
6.063	0.002816
6.064	-0.004004
6.065	-0.013803
6.066	-0.022986
6.067	-0.028902
6.068	-0.030579
6.069	-0.028932
6.07	-0.025796
6.071	-0.022091
6.072	-0.01811
6.073	-0.015412
6.074	-0.01577
6.075	-0.018646
6.076	-0.021743
6.077	-0.023372
6.078	-0.023414
6.079	-0.022683
6.08	-0.021766
6.081	-0.020484
6.082	-0.018715
6.083	-0.01733
6.084	-0.017661
6.085	-0.020267
6.086	-0.024184
6.087	-0.027133
6.088	-0.027018
6.089	-0.023829
6.09	-0.019558
6.091	-0.01576
6.092	-0.012817
6.093	-0.011682
6.094	-0.013339
6.095	-0.01676
6.096	-0.019773
6.097	-0.021353
6.098	-0.021968
6.099	-0.022537
6.1	-0.024049
6.101	-0.027606
6.102	-0.032475
6.103	-0.032249
6.104	-0.015572
6.105	0.023676
6.106	0.076034
6.107	0.12094
6.108	0.143657
6.109	0.145405
6.11	0.13709
6.111	0.12668
6.112	0.112768
6.113	0.089
6.114	0.054993
6.115	0.020634
6.116	-0.00201
6.117	-0.008567
6.118	-0.003767
6.119	0.004185
6.12	0.009485
6.121	0.010505
6.122	0.008046
6.123	0.003229
6.124	-0.003428
6.125	-0.011642
6.126	-0.020134
6.127	-0.026289
6.128	-0.027857
6.129	-0.025231
6.13	-0.02102
6.131	-0.016603
6.132	-0.011308
6.133	-0.005551
6.134	-0.001539
6.135	-0.000715
6.136	-0.002679
6.137	-0.006157
6.138	-0.009826
6.139	-0.01211
6.14	-0.01109
6.141	-0.006085
6.142	0.000425
6.143	0.003467
6.144	-0.001131
6.145	-0.013618
6.146	-0.029651
6.147	-0.042259
6.148	-0.045555
6.149	-0.038512
6.15	-0.025294
6.151	-0.011364
6.152	-0.000909
6.153	0.002781
6.154	-0.001574
6.155	-0.011494
6.156	-0.022255
6.157	-0.030179
6.158	-0.03379
6.159	-0.032347
6.16	-0.025153
6.161	-0.01331
6.162	-0.000966
6.163	0.006337
6.164	0.004908
6.165	-0.00481
6.166	-0.018389
6.167	-0.0299
6.168	-0.035403
6.169	-0.035419
6.17	-0.033691
6.171	-0.032708
6.172	-0.032132
6.173	-0.031446
6.174	-0.030948
6.175	-0.030509
6.176	-0.029548
6.177	-0.027761
6.178	-0.02495
6.179	-0.020429
6.18	-0.013422
6.181	-0.004517
6.182	0.003428
6.183	0.00615
6.184	0.000617
6.185	-0.012401
6.186	-0.028282
6.187	-0.040994
6.188	-0.0463
6.189	-0.044104
6.19	-0.037778
6.191	-0.030918
6.192	-0.025956
6.193	-0.02496
6.194	-0.028631
6.195	-0.034968
6.196	-0.040651
6.197	-0.043196
6.198	-0.041415
6.199	-0.035073
6.2	-0.025598
6.201	-0.017112
6.202	-0.014573
6.203	-0.017812
6.204	-0.016653
6.205	0.00389
6.206	0.048623
6.207	0.103486
6.208	0.14549
6.209	0.160686
6.21	0.151452
6.211	0.129167
6.212	0.101923
6.213	0.069959
6.214	0.032893
6.215	-0.002476
6.216	-0.025017
6.217	-0.028649
6.218	-0.017144
6.219	-0.00044
6.22	0.012445
6.221	0.01766
6.222	0.0161
6.223	0.010415
6.224	0.002563
6.225	-0.006462
6.226	-0.015266
6.227	-0.021382
6.228	-0.02288
6.229	-0.020395
6.23	-0.015439
6.231	-0.005804
6.232	0.014085
6.233	0.046153
6.234	0.084523
6.235	0.118885
6.236	0.13994
6.237	0.142494
6.238	0.12639
6.239	0.095992
6.24	0.058374
6.241	0.021223
6.242	-0.008938
6.243	-0.028803
6.244	-0.039795
6.245	-0.046743
6.246	-0.053663
6.247	-0.060525
6.248	-0.064409
6.249	-0.063406
6.25	-0.058339
6.251	-0.050887
6.252	-0.042675
6.253	-0.0367
6.254	-0.036208
6.255	-0.041375
6.256	-0.048822
6.257	-0.054071
6.258	-0.054124
6.259	-0.048861
6.26	-0.040704
6.261	-0.032928
6.262	-0.028
6.263	-0.027003
6.264	-0.030049
6.265	-0.036514
6.266	-0.04424
6.267	-0.049536
6.268	-0.049527
6.269	-0.044581
6.27	-0.036727
6.271	-0.024784
6.272	-0.004036
6.273	0.027211
6.274	0.063437
6.275	0.094879
6.276	0.112616
6.277	0.111992
6.278	0.093911
6.279	0.063803
6.28	0.029215
6.281	-0.002643
6.282	-0.026802
6.283	-0.041841
6.284	-0.050184
6.285	-0.055925
6.286	-0.061006
6.287	-0.063873
6.288	-0.06222
6.289	-0.056813
6.29	-0.051999
6.291	-0.052021
6.292	-0.058166
6.293	-0.069294
6.294	-0.082275
6.295	-0.092427
6.296	-0.095953
6.297	-0.091984
6.298	-0.082617
6.299	-0.071921
6.3	-0.063791
6.301	-0.058051
6.302	-0.047062
6.303	-0.018895
6.304	0.030555
6.305	0.088302
6.306	0.132193
6.307	0.14946
6.308	0.144709
6.309	0.130157
6.31	0.11304
6.311	0.095228
6.312	0.080175
6.313	0.074427
6.314	0.08246
6.315	0.101511
6.316	0.121805
6.317	0.132215
6.318	0.126085
6.319	0.103712
6.32	0.071491
6.321	0.038372
6.322	0.011376
6.323	-0.007437
6.324	-0.020636
6.325	-0.031557
6.326	-0.04048
6.327	-0.044689
6.328	-0.04202
6.329	-0.034351
6.33	-0.0271
6.331	-0.024716
6.332	-0.028346
6.333	-0.037467
6.334	-0.05033
6.335	-0.063276
6.336	-0.072038
6.337	-0.073475
6.338	-0.066107
6.339	-0.05047
6.34	-0.030192
6.341	-0.012119
6.342	-0.003259
6.343	-0.0066
6.344	-0.019953
6.345	-0.038015
6.346	-0.054816
6.347	-0.065278
6.348	-0.066744
6.349	-0.060116
6.35	-0.047547
6.351	-0.027827
6.352	0.002475
6.353	0.041628
6.354	0.080041
6.355	0.106324
6.356	0.114593
6.357	0.10613
6.358	0.085795
6.359	0.058314
6.36	0.027691
6.361	-0.001431
6.362	-0.024041
6.363	-0.037977
6.364	-0.045774
6.365	-0.051576
6.366	-0.05667
6.367	-0.058824
6.368	-0.05576
6.369	-0.048975
6.37	-0.043365
6.371	-0.042934
6.372	-0.048748
6.373	-0.060445
6.374	-0.07643
6.375	-0.092874
6.376	-0.104658
6.377	-0.107424
6.378	-0.098969
6.379	-0.0801
6.38	-0.055212
6.381	-0.031514
6.382	-0.016124
6.383	-0.012663
6.384	-0.019919
6.385	-0.033079
6.386	-0.045986
6.387	-0.053384
6.388	-0.053214
6.389	-0.047704
6.39	-0.040165
6.391	-0.029377
6.392	-0.010147
6.393	0.018885
6.394	0.051191
6.395	0.077008
6.396	0.089713
6.397	0.087666
6.398	0.072013
6.399	0.044246
6.4	0.00692
6.401	-0.032269
6.402	-0.058114
6.403	-0.053082
6.404	-0.009702
6.405	0.05898
6.406	0.124229
6.407	0.161851
6.408	0.16782
6.409	0.153773
6.41	0.131205
6.411	0.102557
6.412	0.064513
6.413	0.016806
6.414	-0.032218
6.415	-0.06912
6.416	-0.084508
6.417	-0.078001
6.418	-0.055921
6.419	-0.026685
6.42	0.001786
6.421	0.022823
6.422	0.031828
6.423	0.027608
6.424	0.012979
6.425	-0.006296
6.426	-0.023458
6.427	-0.032956
6.428	-0.032813
6.429	-0.025609
6.43	-0.015491
6.431	-0.002909
6.432	0.015353
6.433	0.039853
6.434	0.065586
6.435	0.085846
6.436	0.0963
6.437	0.09563
6.438	0.084155
6.439	0.062866
6.44	0.034586
6.441	0.005575
6.442	-0.016453
6.443	-0.027723
6.444	-0.031584
6.445	-0.035269
6.446	-0.043037
6.447	-0.05273
6.448	-0.058747
6.449	-0.057793
6.45	-0.051293
6.451	-0.042755
6.452	-0.035671
6.453	-0.034277
6.454	-0.042097
6.455	-0.058248
6.456	-0.076779
6.457	-0.089769
6.458	-0.091278
6.459	-0.0798
6.46	-0.058522
6.461	-0.034176
6.462	-0.014786
6.463	-0.006373
6.464	-0.010354
6.465	-0.023183
6.466	-0.038146
6.467	-0.048613
6.468	-0.05122
6.469	-0.047119
6.47	-0.039422
6.471	-0.028462
6.472	-0.011923
6.473	0.009752
6.474	0.031913
6.475	0.049448
6.476	0.05922
6.477	0.059736
6.478	0.050309
6.479	0.031326
6.48	0.005718
6.481	-0.020439
6.482	-0.040031
6.483	-0.049117
6.484	-0.049748
6.485	-0.047682
6.486	-0.046824
6.487	-0.046672
6.488	-0.045361
6.489	-0.044497
6.49	-0.049041
6.491	-0.060229
6.492	-0.069633
6.493	-0.06261
6.494	-0.029733
6.495	0.022698
6.496	0.075293
6.497	0.111376
6.498	0.128387
6.499	0.133737
6.5	0.132971
6.501	0.12369
6.502	0.100853
6.503	0.066241
6.504	0.030265
6.505	0.004576
6.506	-0.005612
6.507	-0.002827
6.508	0.006263
6.509	0.014811
6.51	0.019231
6.511	0.021951
6.512	0.029141
6.513	0.043897
6.514	0.063001
6.515	0.079849
6.516	0.089035
6.517	0.088746
6.518	0.079965
6.519	0.064595
6.52	0.044912
6.521	0.024433
6.522	0.007936
6.523	-0.001364
6.524	-0.004749
6.525	-0.00654
6.526	-0.009511
6.527	-0.012612
6.528	-0.013415
6.529	-0.012324
6.53	-0.013018
6.531	-0.018449
6.532	-0.028906
6.533	-0.043958
6.534	-0.062828
6.535	-0.082463
6.536	-0.097478
6.537	-0.102974
6.538	-0.097564
6.539	-0.084006
6.54	-0.067169
6.541	-0.051073
6.542	-0.037191
6.543	-0.025042
6.544	-0.013855
6.545	-0.003764
6.546	0.004041
6.547	0.008155
6.548	0.007801
6.549	0.002863
6.55	-0.005167
6.551	-0.011252
6.552	-0.00884
6.553	0.003998
6.554	0.022422
6.555	0.039172
6.556	0.04929
6.557	0.051158
6.558	0.045121
6.559	0.032082
6.56	0.01346
6.561	-0.007516
6.562	-0.025591
6.563	-0.03645
6.564	-0.040129
6.565	-0.04045
6.566	-0.040933
6.567	-0.041864
6.568	-0.041641
6.569	-0.040363
6.57	-0.040605
6.571	-0.044462
6.572	-0.052316
6.573	-0.064539
6.574	-0.080857
6.575	-0.097936
6.576	-0.110171
6.577	-0.113049
6.578	-0.105556
6.579	-0.090184
6.58	-0.071127
6.581	-0.052316
6.582	-0.036762
6.583	-0.026637
6.584	-0.022901
6.585	-0.024697
6.586	-0.029233
6.587	-0.03281
6.588	-0.033163
6.589	-0.031155
6.59	-0.028731
6.591	-0.024291
6.592	-0.012752
6.593	0.007842
6.594	0.032504
6.595	0.053074
6.596	0.063668
6.597	0.062623
6.598	0.051264
6.599	0.032085
6.6	0.008366
6.601	-0.015163
6.602	-0.032998
6.603	-0.041814
6.604	-0.04297
6.605	-0.041175
6.606	-0.040139
6.607	-0.040044
6.608	-0.039317
6.609	-0.038092
6.61	-0.038983
6.611	-0.044326
6.612	-0.054733
6.613	-0.070376
6.614	-0.090199
6.615	-0.109812
6.616	-0.12281
6.617	-0.124271
6.618	-0.113027
6.619	-0.091948
6.62	-0.066493
6.621	-0.042442
6.622	-0.024066
6.623	-0.013306
6.624	-0.010084
6.625	-0.012786
6.626	-0.0183
6.627	-0.023007
6.628	-0.025323
6.629	-0.027218
6.63	-0.031281
6.631	-0.035119
6.632	-0.03174
6.633	-0.01734
6.634	0.004184
6.635	0.024536
6.636	0.036283
6.637	0.035802
6.638	0.023587
6.639	0.003056
6.64	-0.020631
6.641	-0.041694
6.642	-0.055605
6.643	-0.061316
6.644	-0.061847
6.645	-0.061661
6.646	-0.062902
6.647	-0.064511
6.648	-0.064921
6.649	-0.065294
6.65	-0.0693
6.651	-0.07936
6.652	-0.095116
6.653	-0.115122
6.654	-0.136629
6.655	-0.154625
6.656	-0.163742
6.657	-0.160961
6.658	-0.146697
6.659	-0.124271
6.66	-0.09862
6.661	-0.07494
6.662	-0.05721
6.663	-0.047053
6.664	-0.043868
6.665	-0.045706
6.666	-0.04971
6.667	-0.051671
6.668	-0.044977
6.669	-0.020948
6.67	0.026937
6.671	0.095784
6.672	0.169185
6.673	0.22445
6.674	0.248342
6.675	0.24478
6.676	0.226505
6.677	0.20133
6.678	0.167288
6.679	0.120668
6.68	0.066901
6.681	0.020865
6.682	-0.003926
6.683	-0.00573
6.684	0.005417
6.685	0.016895
6.686	0.022012
6.687	0.021081
6.688	0.016926
6.689	0.010371
6.69	0.000192
6.691	-0.013688
6.692	-0.029954
6.693	-0.048199
6.694	-0.067744
6.695	-0.085034
6.696	-0.094784
6.697	-0.093256
6.698	-0.079943
6.699	-0.057275
6.7	-0.029888
6.701	-0.003724
6.702	0.015823
6.703	0.025931
6.704	0.026964
6.705	0.021656
6.706	0.013755
6.707	0.006508
6.708	0.001003
6.709	-0.004401
6.71	-0.010928
6.711	-0.014664
6.712	-0.008285
6.713	0.010837
6.714	0.036917
6.715	0.060445
6.716	0.074426
6.717	0.076358
6.718	0.06676
6.719	0.047605
6.72	0.022282
6.721	-0.00348
6.722	-0.022509
6.723	-0.030385
6.724	-0.028894
6.725	-0.024212
6.726	-0.021657
6.727	-0.022423
6.728	-0.024984
6.729	-0.028729
6.73	-0.034994
6.731	-0.044817
6.732	-0.058125
6.733	-0.074955
6.734	-0.09438
6.735	-0.112584
6.736	-0.124104
6.737	-0.124673
6.738	-0.112863
6.739	-0.090658
6.74	-0.063297
6.741	-0.037526
6.742	-0.018631
6.743	-0.008453
6.744	-0.005827
6.745	-0.008469
6.746	-0.014138
6.747	-0.02079
6.748	-0.027088
6.749	-0.03292
6.75	-0.037728
6.751	-0.037573
6.752	-0.026912
6.753	-0.005168
6.754	0.021285
6.755	0.044285
6.756	0.058618
6.757	0.062299
6.758	0.054657
6.759	0.035544
6.76	0.007305
6.761	-0.02295
6.762	-0.045747
6.763	-0.055721
6.764	-0.053938
6.765	-0.041346
6.766	-0.011343
6.767	0.045223
6.768	0.123696
6.769	0.198355
6.77	0.238267
6.771	0.230748
6.772	0.186101
6.773	0.122627
6.774	0.053444
6.775	-0.013339
6.776	-0.068537
6.777	-0.10089
6.778	-0.103345
6.779	-0.079102
6.78	-0.040455
6.781	-0.002027
6.782	0.025768
6.783	0.039357
6.784	0.040458
6.785	0.032888
6.786	0.02053
6.787	0.006633
6.788	-0.006619
6.789	-0.018185
6.79	-0.02635
6.791	-0.026055
6.792	-0.011674
6.793	0.015718
6.794	0.047486
6.795	0.07414
6.796	0.090327
6.797	0.094648
6.798	0.087482
6.799	0.070095
6.8	0.045784
6.801	0.020828
6.802	0.00277
6.803	-0.003906
6.804	-0.001384
6.805	0.003074
6.806	0.003271
6.807	-0.001662
6.808	-0.008818
6.809	-0.016331
6.81	-0.025361
6.811	-0.037171
6.812	-0.051124
6.813	-0.066253
6.814	-0.081459
6.815	-0.094169
6.816	-0.10101
6.817	-0.099603
6.818	-0.089404
6.819	-0.071717
6.82	-0.049644
6.821	-0.027811
6.822	-0.010864
6.823	-0.00152
6.824	6.7e-05
6.825	-0.004269
6.826	-0.01156
6.827	-0.018801
6.828	-0.024315
6.829	-0.028606
6.83	-0.032472
6.831	-0.033181
6.832	-0.025533
6.833	-0.007962
6.834	0.015371
6.835	0.037908
6.836	0.053853
6.837	0.059442
6.838	0.053058
6.839	0.035335
6.84	0.010025
6.841	-0.015611
6.842	-0.03312
6.843	-0.037999
6.844	-0.033185
6.845	-0.026319
6.846	-0.023251
6.847	-0.024518
6.848	-0.02763
6.849	-0.031889
6.85	-0.039458
6.851	-0.051427
6.852	-0.065904
6.853	-0.0806
6.854	-0.094094
6.855	-0.104623
6.856	-0.109782
6.857	-0.107523
6.858	-0.097164
6.859	-0.079522
6.86	-0.056644
6.861	-0.031944
6.862	-0.010045
6.863	0.004594
6.864	0.009723
6.865	0.006467
6.866	-0.001307
6.867	-0.00903
6.868	-0.013875
6.869	-0.016133
6.87	-0.017023
6.871	-0.014447
6.872	-0.003887
6.873	0.015436
6.874	0.038303
6.875	0.057279
6.876	0.066474
6.877	0.062873
6.878	0.047008
6.879	0.023107
6.88	-0.002594
6.881	-0.024127
6.882	-0.037048
6.883	-0.039808
6.884	-0.035096
6.885	-0.028422
6.886	-0.024165
6.887	-0.023034
6.888	-0.023576
6.889	-0.025809
6.89	-0.0319
6.891	-0.043088
6.892	-0.058603
6.893	-0.077804
6.894	-0.099791
6.895	-0.119579
6.896	-0.125551
6.897	-0.102504
6.898	-0.042262
6.899	0.044485
6.9	0.129312
6.901	0.18409
6.902	0.199376
6.903	0.185689
6.904	0.159805
6.905	0.131138
6.906	0.099573
6.907	0.063771
6.908	0.028501
6.909	0.002513
6.91	-0.008047
6.911	-0.001712
6.912	0.019297
6.913	0.048686
6.914	0.077456
6.915	0.097918
6.916	0.105812
6.917	0.099949
6.918	0.081911
6.919	0.05587
6.92	0.027784
6.921	0.004123
6.922	-0.010076
6.923	-0.013539
6.924	-0.009424
6.925	-0.002972
6.926	0.002214
6.927	0.00578
6.928	0.008658
6.929	0.010032
6.93	0.007202
6.931	-0.00145
6.932	-0.015324
6.933	-0.033369
6.934	-0.053923
6.935	-0.07325
6.936	-0.086967
6.937	-0.092711
6.938	-0.090694
6.939	-0.08229
6.94	-0.06859
6.941	-0.050607
6.942	-0.030784
6.943	-0.013332
6.944	-0.002279
6.945	0.001083
6.946	-0.000818
6.947	-0.003634
6.948	-0.004657
6.949	-0.004857
6.95	-0.006335
6.951	-0.006865
6.952	0.000302
6.953	0.019024
6.954	0.045019
6.955	0.068582
6.956	0.080557
6.957	0.076565
6.958	0.058039
6.959	0.030708
6.96	0.002105
6.961	-0.021051
6.962	-0.03508
6.963	-0.040305
6.964	-0.040214
6.965	-0.038693
6.966	-0.037225
6.967	-0.034967
6.968	-0.031439
6.969	-0.028849
6.97	-0.031243
6.971	-0.040769
6.972	-0.056299
6.973	-0.075662
6.974	-0.096316
6.975	-0.114485
6.976	-0.126262
6.977	-0.129309
6.978	-0.123121
6.979	-0.108501
6.98	-0.087465
6.981	-0.063636
6.982	-0.041661
6.983	-0.02539
6.984	-0.016441
6.985	-0.013795
6.986	-0.014306
6.987	-0.014543
6.988	-0.013339
6.989	-0.012752
6.99	-0.014839
6.991	-0.016497
6.992	-0.010984
6.993	0.004089
6.994	0.025117
6.995	0.050567
6.996	0.086832
6.997	0.141388
6.998	0.207981
6.999	0.262853
7.0	0.281639
7.001	0.259676
7.002	0.21313
7.003	0.161689
7.004	0.113187
7.005	0.06514
7.006	0.017542
7.007	-0.020198
7.008	-0.036558
7.009	-0.030415
7.01	-0.013586
7.011	-0.001046
7.012	-0.001515
7.013	-0.015866
7.014	-0.038999
7.015	-0.062887
7.016	-0.080664
7.017	-0.088714
7.018	-0.086056
7.019	-0.073458
7.02	-0.053689
7.021	-0.031781
7.022	-0.013321
7.023	-0.001559
7.024	0.003841
7.025	0.005627
7.026	0.006976
7.027	0.009928
7.028	0.014192
7.029	0.016981
7.03	0.016346
7.031	0.016277
7.032	0.024978
7.033	0.04586
7.034	0.07288
7.035	0.095114
7.036	0.103918
7.037	0.096438
7.038	0.075033
7.039	0.045213
7.04	0.013736
7.041	-0.012766
7.042	-0.029261
7.043	-0.034448
7.044	-0.031547
7.045	-0.025767
7.046	-0.020713
7.047	-0.017006
7.048	-0.013845
7.049	-0.011777
7.05	-0.013201
7.051	-0.020067
7.052	-0.032958
7.053	-0.051912
7.054	-0.075354
7.055	-0.098826
7.056	-0.116541
7.057	-0.12389
7.058	-0.118693
7.059	-0.101566
7.06	-0.076248
7.061	-0.049332
7.062	-0.028191
7.063	-0.017498
7.064	-0.016832
7.065	-0.021489
7.066	-0.025778
7.067	-0.026225
7.068	-0.023112
7.069	-0.019589
7.07	-0.017697
7.071	-0.01408
7.072	-0.002149
7.073	0.019938
7.074	0.045975
7.075	0.066643
7.076	0.075574
7.077	0.071188
7.078	0.055185
7.079	0.030748
7.08	0.002485
7.081	-0.022947
7.082	-0.038902
7.083	-0.043105
7.084	-0.03921
7.085	-0.033435
7.086	-0.029671
7.087	-0.027538
7.088	-0.024878
7.089	-0.021629
7.09	-0.020668
7.091	-0.025112
7.092	-0.036457
7.093	-0.054941
7.094	-0.078716
7.095	-0.102624
7.096	-0.119971
7.097	-0.125788
7.098	-0.118355
7.099	-0.098992
7.1	-0.071793
7.101	-0.043443
7.102	-0.021445
7.103	-0.010532
7.104	-0.01027
7.105	-0.016104
7.106	-0.022285
7.107	-0.024583
7.108	-0.02194
7.109	-0.016357
7.11	-0.010057
7.111	-0.001836
7.112	0.011418
7.113	0.028856
7.114	0.045121
7.115	0.055784
7.116	0.060018
7.117	0.058309
7.118	0.049777
7.119	0.032665
7.12	0.007827
7.121	-0.018802
7.122	-0.038675
7.123	-0.046475
7.124	-0.043726
7.125	-0.03647
7.126	-0.029519
7.127	-0.023592
7.128	-0.017521
7.129	-0.011891
7.13	-0.009567
7.131	-0.012785
7.132	-0.021985
7.133	-0.037428
7.134	-0.058445
7.135	-0.081055
7.136	-0.098537
7.137	-0.104456
7.138	-0.095711
7.139	-0.074065
7.14	-0.045506
7.141	-0.018235
7.142	0.000104
7.143	0.005599
7.144	-9.2e-05
7.145	-0.01074
7.146	-0.018923
7.147	-0.019937
7.148	-0.01394
7.149	-0.005115
7.15	0.002573
7.151	0.010376
7.152	0.023108
7.153	0.041656
7.154	0.061033
7.155	0.075922
7.156	0.084958
7.157	0.08904
7.158	0.086264
7.159	0.070987
7.16	0.042969
7.161	0.01947
7.162	0.031446
7.163	0.09785
7.164	0.203215
7.165	0.306217
7.166	0.369969
7.167	0.381931
7.168	0.348984
7.169	0.280655
7.17	0.183038
7.171	0.068815
7.172	-0.0371
7.173	-0.109922
7.174	-0.140644
7.175	-0.138314
7.176	-0.119996
7.177	-0.098904
7.178	-0.079393
7.179	-0.059696
7.18	-0.037924
7.181	-0.016404
7.182	-0.00119
7.183	0.002402
7.184	-0.005795
7.185	-0.019981
7.186	-0.031802
7.187	-0.035249
7.188	-0.029648
7.189	-0.019118
7.19	-0.008074
7.191	0.003997
7.192	0.021201
7.193	0.044279
7.194	0.06799
7.195	0.085197
7.196	0.091425
7.197	0.086076
7.198	0.070998
7.199	0.048809
7.2	0.022513
7.201	-0.003833
7.202	-0.025293
7.203	-0.038516
7.204	-0.043973
7.205	-0.044619
7.206	-0.04273
7.207	-0.038762
7.208	-0.033007
7.209	-0.027725
7.21	-0.026281
7.211	-0.029873
7.212	-0.037495
7.213	-0.048982
7.214	-0.065004
7.215	-0.084075
7.216	-0.101139
7.217	-0.109277
7.218	-0.103678
7.219	-0.085325
7.22	-0.061366
7.221	-0.04134
7.222	-0.03173
7.223	-0.032646
7.224	-0.038876
7.225	-0.044265
7.226	-0.04557
7.227	-0.04288
7.228	-0.037873
7.229	-0.032354
7.23	-0.026558
7.231	-0.017324
7.232	-0.000362
7.233	0.023962
7.234	0.049233
7.235	0.067727
7.236	0.07502
7.237	0.070748
7.238	0.056822
7.239	0.035524
7.24	0.009112
7.241	-0.018771
7.242	-0.04227
7.243	-0.055914
7.244	-0.05868
7.245	-0.054599
7.246	-0.048847
7.247	-0.043726
7.248	-0.039004
7.249	-0.035321
7.25	-0.034921
7.251	-0.038719
7.252	-0.046149
7.253	-0.057917
7.254	-0.072854
7.255	-0.080861
7.256	-0.06573
7.257	-0.020409
7.258	0.042392
7.259	0.099388
7.26	0.135769
7.261	0.152076
7.262	0.154925
7.263	0.147001
7.264	0.127637
7.265	0.099831
7.266	0.073066
7.267	0.057312
7.268	0.05459
7.269	0.057841
7.27	0.058942
7.271	0.057849
7.272	0.061858
7.273	0.075858
7.274	0.096967
7.275	0.1177
7.276	0.130546
7.277	0.13088
7.278	0.118406
7.279	0.09646
7.28	0.070435
7.281	0.046675
7.282	0.031045
7.283	0.026533
7.284	0.030823
7.285	0.037062
7.286	0.040032
7.287	0.041889
7.288	0.048965
7.289	0.062437
7.29	0.074603
7.291	0.075495
7.292	0.061227
7.293	0.035364
7.294	0.005091
7.295	-0.022658
7.296	-0.042796
7.297	-0.051789
7.298	-0.047842
7.299	-0.031645
7.3	-0.005797
7.301	0.02583
7.302	0.056833
7.303	0.07801
7.304	0.081906
7.305	0.069498
7.306	0.051124
7.307	0.038604
7.308	0.03624
7.309	0.039595
7.31	0.042791
7.311	0.047065
7.312	0.05985
7.313	0.08434
7.314	0.113568
7.315	0.135776
7.316	0.143013
7.317	0.134473
7.318	0.114087
7.319	0.087044
7.32	0.058465
7.321	0.033292
7.322	0.015435
7.323	0.0061
7.324	0.003388
7.325	0.004309
7.326	0.006945
7.327	0.010697
7.328	0.015162
7.329	0.018732
7.33	0.018731
7.331	0.013469
7.332	0.002582
7.333	-0.014001
7.334	-0.034277
7.335	-0.052497
7.336	-0.061838
7.337	-0.058447
7.338	-0.043102
7.339	-0.020082
7.34	0.005015
7.341	0.026869
7.342	0.04164
7.343	0.048059
7.344	0.047691
7.345	0.044047
7.346	0.041007
7.347	0.041027
7.348	0.043643
7.349	0.045362
7.35	0.043317
7.351	0.040871
7.352	0.046352
7.353	0.063797
7.354	0.087192
7.355	0.103714
7.356	0.100505
7.357	0.069581
7.358	0.009615
7.359	-0.074351
7.36	-0.172048
7.361	-0.268555
7.362	-0.34547
7.363	-0.387667
7.364	-0.394324
7.365	-0.381866
7.366	-0.371304
7.367	-0.369994
7.368	-0.364505
7.369	-0.329551
7.37	-0.244753
7.371	-0.109438
7.372	0.051041
7.373	0.194286
7.374	0.283716
7.375	0.307982
7.376	0.281908
7.377	0.23281
7.378	0.185689
7.379	0.155229
7.38	0.144488
7.381	0.14782
7.382	0.155984
7.383	0.1613
7.384	0.160916
7.385	0.156902
7.386	0.153383
7.387	0.152808
7.388	0.153661
7.389	0.151178
7.39	0.14228
7.391	0.131361
7.392	0.128388
7.393	0.139347
7.394	0.160588
7.395	0.182383
7.396	0.195689
7.397	0.195876
7.398	0.182561
7.399	0.158147
7.4	0.127371
7.401	0.097432
7.402	0.075761
7.403	0.065576
7.404	0.064126
7.405	0.065802
7.406	0.066411
7.407	0.064694
7.408	0.060618
7.409	0.05301
7.41	0.039901
7.411	0.021106
7.412	-0.001561
7.413	-0.02633
7.414	-0.050978
7.415	-0.071344
7.416	-0.082915
7.417	-0.083525
7.418	-0.074075
7.419	-0.057542
7.42	-0.037801
7.421	-0.018867
7.422	-0.004136
7.423	0.004788
7.424	0.00875
7.425	0.010035
7.426	0.010671
7.427	0.011406
7.428	0.011271
7.429	0.008144
7.43	0.001829
7.431	-0.002429
7.432	0.003237
7.433	0.020976
7.434	0.044368
7.435	0.063984
7.436	0.073339
7.437	0.070617
7.438	0.057293
7.439	0.035778
7.44	0.008621
7.441	-0.019701
7.442	-0.04168
7.443	-0.050121
7.444	-0.043797
7.445	-0.028979
7.446	-0.014549
7.447	-0.006016
7.448	-0.00425
7.449	-0.008498
7.45	-0.018298
7.451	-0.031872
7.452	-0.046192
7.453	-0.059992
7.454	-0.073486
7.455	-0.085507
7.456	-0.093422
7.457	-0.09479
7.458	-0.088343
7.459	-0.074716
7.46	-0.056916
7.461	-0.039521
7.462	-0.026496
7.463	-0.01912
7.464	-0.015998
7.465	-0.014891
7.466	-0.014374
7.467	-0.014502
7.468	-0.016528
7.469	-0.021573
7.47	-0.027871
7.471	-0.028598
7.472	-0.015939
7.473	0.010732
7.474	0.043346
7.475	0.071192
7.476	0.086164
7.477	0.08421
7.478	0.064851
7.479	0.031091
7.48	-0.008974
7.481	-0.041836
7.482	-0.054599
7.483	-0.045285
7.484	-0.025596
7.485	-0.007567
7.486	0.014227
7.487	0.060533
7.488	0.14217
7.489	0.240301
7.49	0.316174
7.491	0.338481
7.492	0.299316
7.493	0.210673
7.494	0.095021
7.495	-0.021771
7.496	-0.116564
7.497	-0.174174
7.498	-0.190032
7.499	-0.169822
7.5	-0.126677
7.501	-0.076778
7.502	-0.034391
7.503	-0.007874
7.504	0.00175
7.505	-0.001048
7.506	-0.010312
7.507	-0.021818
7.508	-0.033726
7.509	-0.045942
7.51	-0.058658
7.511	-0.070412
7.512	-0.079198
7.513	-0.085261
7.514	-0.089897
7.515	-0.092854
7.516	-0.09288
7.517	-0.08919
7.518	-0.081694
7.519	-0.070844
7.52	-0.057925
7.521	-0.045142
7.522	-0.034534
7.523	-0.02683
7.524	-0.021783
7.525	-0.01928
7.526	-0.019741
7.527	-0.023542
7.528	-0.030553
7.529	-0.040473
7.53	-0.05223
7.531	-0.062398
7.532	-0.067125
7.533	-0.066501
7.534	-0.064419
7.535	-0.064441
7.536	-0.067155
7.537	-0.07044
7.538	-0.071199
7.539	-0.067088
7.54	-0.057751
7.541	-0.045317
7.542	-0.033526
7.543	-0.025791
7.544	-0.023486
7.545	-0.025525
7.546	-0.029379
7.547	-0.032801
7.548	-0.035391
7.549	-0.038756
7.55	-0.044049
7.551	-0.049495
7.552	-0.052708
7.553	-0.054674
7.554	-0.058271
7.555	-0.064038
7.556	-0.069578
7.557	-0.071743
7.558	-0.06834
7.559	-0.058926
7.56	-0.045199
7.561	-0.030612
7.562	-0.018881
7.563	-0.012159
7.564	-0.010311
7.565	-0.011908
7.566	-0.015664
7.567	-0.020859
7.568	-0.027174
7.569	-0.034706
7.57	-0.043078
7.571	-0.049847
7.572	-0.051928
7.573	-0.049384
7.574	-0.045665
7.575	-0.044181
7.576	-0.045926
7.577	-0.0494
7.578	-0.051622
7.579	-0.049613
7.58	-0.042055
7.581	-0.030269
7.582	-0.017689
7.583	-0.007966
7.584	-0.003116
7.585	-0.003337
7.586	-0.007811
7.587	-0.014794
7.588	-0.021409
7.589	-0.024526
7.59	-0.0224
7.591	-0.015988
7.592	-0.009224
7.593	-0.004204
7.594	0.008817
7.595	0.051073
7.596	0.134996
7.597	0.244755
7.598	0.342486
7.599	0.392948
7.6	0.38103
7.601	0.312521
7.602	0.206426
7.603	0.087475
7.604	-0.019472
7.605	-0.094831
7.606	-0.129252
7.607	-0.125638
7.608	-0.096936
7.609	-0.060608
7.61	-0.031335
7.611	-0.015305
7.612	-0.0111
7.613	-0.015434
7.614	-0.025814
7.615	-0.039431
7.616	-0.052977
7.617	-0.063585
7.618	-0.0694
7.619	-0.069815
7.62	-0.065368
7.621	-0.057247
7.622	-0.046831
7.623	-0.035539
7.624	-0.025208
7.625	-0.018236
7.626	-0.01632
7.627	-0.018986
7.628	-0.023935
7.629	-0.029111
7.63	-0.033748
7.631	-0.036975
7.632	-0.037835
7.633	-0.03759
7.634	-0.039182
7.635	-0.044171
7.636	-0.051704
7.637	-0.059472
7.638	-0.06464
7.639	-0.064458
7.64	-0.057268
7.641	-0.044145
7.642	-0.029402
7.643	-0.018364
7.644	-0.01413
7.645	-0.016219
7.646	-0.021554
7.647	-0.026387
7.648	-0.028124
7.649	-0.026979
7.65	-0.025925
7.651	-0.027715
7.652	-0.032901
7.653	-0.040679
7.654	-0.049052
7.655	-0.055309
7.656	-0.058458
7.657	-0.059884
7.658	-0.060866
7.659	-0.06044
7.66	-0.05621
7.661	-0.047093
7.662	-0.034894
7.663	-0.023296
7.664	-0.015561
7.665	-0.012775
7.666	-0.013581
7.667	-0.015328
7.668	-0.015792
7.669	-0.014698
7.67	-0.013383
7.671	-0.012379
7.672	-0.011188
7.673	-0.010565
7.674	-0.012154
7.675	-0.016476
7.676	-0.022849
7.677	-0.02985
7.678	-0.035034
7.679	-0.035049
7.68	-0.027508
7.681	-0.013819
7.682	0.000354
7.683	0.008479
7.684	0.007679
7.685	0.0004
7.686	-0.007905
7.687	-0.012392
7.688	-0.011065
7.689	-0.005429
7.69	0.000829
7.691	0.004772
7.692	0.005036
7.693	0.000703
7.694	-0.007735
7.695	-0.017294
7.696	-0.024119
7.697	-0.025231
7.698	-0.019039
7.699	-0.006248
7.7	0.009654
7.701	0.026659
7.702	0.052421
7.703	0.104057
7.704	0.191682
7.705	0.300856
7.706	0.395834
7.707	0.441371
7.708	0.421015
7.709	0.339784
7.71	0.218312
7.711	0.086144
7.712	-0.027413
7.713	-0.102991
7.714	-0.134839
7.715	-0.12897
7.716	-0.099381
7.717	-0.062717
7.718	-0.032314
7.719	-0.014226
7.72	-0.007413
7.721	-0.007655
7.722	-0.011731
7.723	-0.018598
7.724	-0.02772
7.725	-0.037456
7.726	-0.045203
7.727	-0.048366
7.728	-0.045543
7.729	-0.037815
7.73	-0.028214
7.731	-0.019308
7.732	-0.012797
7.733	-0.010679
7.734	-0.013761
7.735	-0.01992
7.736	-0.025925
7.737	-0.029978
7.738	-0.031661
7.739	-0.030752
7.74	-0.027524
7.741	-0.024007
7.742	-0.023496
7.743	-0.02784
7.744	-0.035575
7.745	-0.043166
7.746	-0.047404
7.747	-0.046541
7.748	-0.040596
7.749	-0.031665
7.75	-0.022987
7.751	-0.016628
7.752	-0.013066
7.753	-0.012703
7.754	-0.015426
7.755	-0.019369
7.756	-0.022173
7.757	-0.023333
7.758	-0.024896
7.759	-0.029722
7.76	-0.038579
7.761	-0.048887
7.762	-0.056689
7.763	-0.059753
7.764	-0.058733
7.765	-0.055876
7.766	-0.052658
7.767	-0.048366
7.768	-0.041177
7.769	-0.030658
7.77	-0.018532
7.771	-0.006954
7.772	0.002181
7.773	0.006628
7.774	0.005452
7.775	0.000702
7.776	-0.004456
7.777	-0.0082
7.778	-0.010132
7.779	-0.010126
7.78	-0.008018
7.781	-0.004657
7.782	-0.002606
7.783	-0.004625
7.784	-0.011254
7.785	-0.02023
