time_s	mv
0.0	-0.731699
0.001	-0.536445
0.002	-0.151587
0.003	0.300353
0.004	0.649251
0.005	0.747094
0.006	0.519528
0.007	-0.017571
0.008	-0.763992
0.009	-1.557383
0.01	-2.210648
0.011	-2.568184
0.012	-2.574394
0.013	-2.304434
0.014	-1.91718
0.015	-1.567345
0.016	-1.338076
0.017	-1.219356
0.018	-1.14752
0.019	-1.126709
0.02	-1.385395
0.021	-2.367095
0.022	-4.345377
0.023	-6.91628
0.024	-9.054868
0.025	-9.826687
0.026	-8.958014
0.027	-6.758497
0.028	-3.739317
0.029	-0.43519
0.03	2.509676
0.031	4.339211
0.032	4.553963
0.033	3.391451
0.034	1.745553
0.035	0.451045
0.036	-0.246601
0.037	-0.549661
0.038	-0.698363
0.039	-0.764046
0.04	-0.684389
0.041	-0.385022
0.042	0.11972
0.043	0.696119
0.044	1.142913
0.045	1.278994
0.046	1.007722
0.047	0.343455
0.048	-0.58745
0.049	-1.568167
0.05	-2.348957
0.051	-2.74052
0.052	-2.702282
0.053	-2.357341
0.054	-1.905311
0.055	-1.507062
0.056	-1.232206
0.057	-1.067737
0.058	-0.965388
0.059	-0.950396
0.06	-1.259632
0.061	-2.313718
0.062	-4.329149
0.063	-6.849397
0.064	-8.853544
0.065	-9.469085
0.066	-8.495701
0.067	-6.28443
0.068	-3.346886
0.069	-0.194487
0.07	2.571756
0.071	4.270294
0.072	4.487596
0.073	3.481935
0.074	2.036115
0.075	0.811787
0.076	-0.005458
0.077	-0.502491
0.078	-0.763972
0.079	-0.816752
0.08	-0.666558
0.081	-0.317371
0.082	0.205748
0.083	0.81396
0.084	1.332931
0.085	1.553404
0.086	1.334677
0.087	0.678241
0.088	-0.274202
0.089	-1.29726
0.09	-2.155392
0.091	-2.669225
0.092	-2.766211
0.093	-2.506251
0.094	-2.055266
0.095	-1.601598
0.096	-1.264077
0.097	-1.050541
0.098	-0.902485
0.099	-0.832493
0.1	-1.082079
0.101	-2.092379
0.102	-4.101395
0.103	-6.656445
0.104	-8.714768
0.105	-9.368205
0.106	-8.389793
0.107	-6.129152
0.108	-3.121003
0.109	0.087913
0.11	2.856128
0.111	4.458683
0.112	4.461782
0.113	3.176532
0.114	1.522111
0.115	0.297913
0.116	-0.293637
0.117	-0.471068
0.118	-0.482922
0.119	-0.423949
0.12	-0.267455
0.121	0.037847
0.122	0.494292
0.123	1.014845
0.124	1.432022
0.125	1.568858
0.126	1.322842
0.127	0.707596
0.128	-0.154791
0.129	-1.076151
0.13	-1.858839
0.131	-2.350918
0.132	-2.492392
0.133	-2.33178
0.134	-1.996328
0.135	-1.632381
0.136	-1.346495
0.137	-1.171254
0.138	-1.066889
0.139	-0.952525
0.14	-0.749832
0.141	-0.416679
0.142	0.033159
0.143	0.513879
0.144	0.881086
0.145	0.994621
0.146	0.784008
0.147	0.272785
0.148	-0.435055
0.149	-1.189385
0.15	-1.832547
0.151	-2.239413
0.152	-2.358782
0.153	-2.230211
0.154	-1.956626
0.155	-1.654077
0.156	-1.407511
0.157	-1.244578
0.158	-1.133628
0.159	-1.007184
0.16	-0.799934
0.161	-0.481186
0.162	-0.074844
0.163	0.334143
0.164	0.625946
0.165	0.700418
0.166	0.517289
0.167	0.102042
0.168	-0.468574
0.169	-1.086134
0.17	-1.630973
0.171	-2.000114
0.172	-2.14056
0.173	-2.068255
0.174	-1.858247
0.175	-1.608562
0.176	-1.395873
0.177	-1.246603
0.178	-1.133802
0.179	-0.999702
0.18	-0.792766
0.181	-0.496562
0.182	-0.143886
0.183	0.185062
0.184	0.393914
0.185	0.415826
0.186	0.234773
0.187	-0.12239
0.188	-0.598047
0.189	-1.109113
0.19	-1.555893
0.191	-1.847688
0.192	-1.940525
0.193	-1.858128
0.194	-1.674626
0.195	-1.472788
0.196	-1.308063
0.197	-1.194029
0.198	-1.106486
0.199	-1.00056
0.2	-0.831842
0.201	-0.571017
0.202	-0.216261
0.203	0.191565
0.204	0.55735
0.205	0.738032
0.206	0.600189
0.207	0.125672
0.208	-0.535941
0.209	-1.153881
0.21	-1.566204
0.211	-1.743045
0.212	-1.739918
0.213	-1.634104
0.214	-1.491534
0.215	-1.353654
0.216	-1.238712
0.217	-1.145165
0.218	-1.050624
0.219	-0.921254
0.22	-0.732027
0.221	-0.484814
0.222	-0.219492
0.223	-0.005106
0.224	0.095197
0.225	0.054911
0.226	-0.116815
0.227	-0.392343
0.228	-0.729632
0.229	-1.068035
0.23	-1.339811
0.231	-1.494338
0.232	-1.521383
0.233	-1.457892
0.234	-1.358469
0.235	-1.258076
0.236	-1.167957
0.237	-1.085221
0.238	-0.99451
0.239	-0.875097
0.24	-0.71643
0.241	-0.531112
0.242	-0.349265
0.243	-0.192984
0.244	-0.074161
0.245	-0.021728
0.246	-0.075454
0.247	-0.246487
0.248	-0.505249
0.249	-0.804079
0.25	-1.096225
0.251	-1.331554
0.252	-1.455958
0.253	-1.442825
0.254	-1.321469
0.255	-1.1561
0.256	-1.000101
0.257	-0.874141
0.258	-0.774409
0.259	-0.691068
0.26	-0.61679
0.261	-0.538315
0.262	-0.432824
0.263	-0.294078
0.264	-0.160299
0.265	-0.095723
0.266	-0.142706
0.267	-0.296877
0.268	-0.519542
0.269	-0.765863
0.27	-0.998662
0.271	-1.180583
0.272	-1.2741
0.273	-1.264136
0.274	-1.17312
0.275	-1.045082
0.276	-0.917397
0.277	-0.807297
0.278	-0.716405
0.279	-0.640587
0.28	-0.573508
0.281	-0.50099
0.282	-0.403014
0.283	-0.280246
0.284	-0.173474
0.285	-0.136644
0.286	-0.19381
0.287	-0.329489
0.288	-0.509972
0.289	-0.705891
0.29	-0.894258
0.291	-1.045256
0.292	-1.123766
0.293	-1.113214
0.294	-1.031014
0.295	-0.914378
0.296	-0.794926
0.297	-0.689058
0.298	-0.603613
0.299	-0.541462
0.3	-0.499461
0.301	-0.459891
0.302	-0.395002
0.303	-0.299245
0.304	-0.209725
0.305	-0.178101
0.306	-0.227588
0.307	-0.340836
0.308	-0.483247
0.309	-0.631595
0.31	-0.774446
0.311	-0.894724
0.312	-0.969214
0.313	-0.984462
0.314	-0.945354
0.315	-0.870119
0.316	-0.780455
0.317	-0.694337
0.318	-0.621745
0.319	-0.562435
0.32	-0.507131
0.321	-0.439494
0.322	-0.346749
0.323	-0.242946
0.324	-0.170721
0.325	-0.166719
0.326	-0.233406
0.327	-0.347104
0.328	-0.48433
0.329	-0.630537
0.33	-0.760705
0.331	-0.825596
0.332	-0.774337
0.333	-0.603895
0.334	-0.396074
0.335	-0.284682
0.336	-0.344927
0.337	-0.513333
0.338	-0.645592
0.339	-0.652064
0.34	-0.553714
0.341	-0.419862
0.342	-0.298767
0.343	-0.21418
0.344	-0.183332
0.345	-0.213212
0.346	-0.290044
0.347	-0.386605
0.348	-0.484709
0.349	-0.581482
0.35	-0.671258
0.351	-0.738256
0.352	-0.77171
0.353	-0.774699
0.354	-0.755889
0.355	-0.721032
0.356	-0.674692
0.357	-0.623957
0.358	-0.573589
0.359	-0.521207
0.36	-0.460213
0.361	-0.385173
0.362	-0.30246
0.363	-0.236274
0.364	-0.213138
0.365	-0.241801
0.366	-0.308899
0.367	-0.390865
0.368	-0.471837
0.369	-0.546341
0.37	-0.606615
0.371	-0.639859
0.372	-0.641729
0.373	-0.624724
0.374	-0.605256
0.375	-0.586585
0.376	-0.562688
0.377	-0.530492
0.378	-0.489425
0.379	-0.43745
0.38	-0.372579
0.381	-0.296959
0.382	-0.224534
0.383	-0.180532
0.384	-0.184228
0.385	-0.233723
0.386	-0.307519
0.387	-0.381274
0.388	-0.44304
0.389	-0.488552
0.39	-0.51167
0.391	-0.509313
0.392	-0.491611
0.393	-0.479998
0.394	-0.486425
0.395	-0.499555
0.396	-0.501851
0.397	-0.48754
0.398	-0.457669
0.399	-0.412204
0.4	-0.350105
0.401	-0.274641
0.402	-0.203328
0.403	-0.165387
0.404	-0.179323
0.405	-0.236727
0.406	-0.310367
0.407	-0.375954
0.408	-0.423227
0.409	-0.447945
0.41	-0.444575
0.411	-0.412988
0.412	-0.372189
0.413	-0.356308
0.414	-0.38033
0.415	-0.422176
0.416	-0.450696
0.417	-0.452435
0.418	-0.429237
0.419	-0.388482
0.42	-0.337854
0.421	-0.286563
0.422	-0.247085
0.423	-0.223447
0.424	-0.206123
0.425	-0.189892
0.426	-0.180573
0.427	-0.181503
0.428	-0.190784
0.429	-0.212762
0.43	-0.258768
0.431	-0.326807
0.432	-0.389579
0.433	-0.417923
0.434	-0.408474
0.435	-0.377525
0.436	-0.339882
0.437	-0.303634
0.438	-0.277531
0.439	-0.273249
0.44	-0.295493
0.441	-0.328245
0.442	-0.33848
0.443	-0.307547
0.444	-0.254679
0.445	-0.215609
0.446	-0.206883
0.447	-0.220131
0.448	-0.240071
0.449	-0.262706
0.45	-0.295028
0.451	-0.336019
0.452	-0.369332
0.453	-0.379305
0.454	-0.364537
0.455	-0.33435
0.456	-0.299411
0.457	-0.268791
0.458	-0.252827
0.459	-0.263395
0.46	-0.306119
0.461	-0.36432
0.462	-0.392576
0.463	-0.34314
0.464	-0.201048
0.465	0.004634
0.466	0.198745
0.467	0.278786
0.468	0.186315
0.469	-0.029335
0.47	-0.244706
0.471	-0.36398
0.472	-0.37854
0.473	-0.338967
0.474	-0.294353
0.475	-0.263798
0.476	-0.245682
0.477	-0.236002
0.478	-0.235411
0.479	-0.244652
0.48	-0.259414
0.481	-0.267262
0.482	-0.253865
0.483	-0.224525
0.484	-0.207286
0.485	-0.222076
0.486	-0.259768
0.487	-0.293821
0.488	-0.305829
0.489	-0.301864
0.49	-0.300964
0.491	-0.309531
0.492	-0.316741
0.493	-0.311234
0.494	-0.293146
0.495	-0.271161
0.496	-0.253494
0.497	-0.244037
0.498	-0.242383
0.499	-0.244297
0.5	-0.243811
0.501	-0.233266
0.502	-0.208911
0.503	-0.183475
0.504	-0.178702
0.505	-0.201145
0.506	-0.235011
0.507	-0.255876
0.508	-0.252094
0.509	-0.235905
0.51	-0.226522
0.511	-0.226726
0.512	-0.225445
0.513	-0.215388
0.514	-0.200476
0.515	-0.189986
0.516	-0.189686
0.517	-0.198204
0.518	-0.207045
0.519	-0.20513
0.52	-0.187227
0.521	-0.156451
0.522	-0.125055
0.523	-0.113352
0.524	-0.134506
0.525	-0.180574
0.526	-0.227356
0.527	-0.252421
0.528	-0.253189
0.529	-0.244148
0.53	-0.235134
0.531	-0.223045
0.532	-0.203699
0.533	-0.181491
0.534	-0.166529
0.535	-0.165681
0.536	-0.177972
0.537	-0.195525
0.538	-0.204896
0.539	-0.1939
0.54	-0.161197
0.541	-0.117164
0.542	-0.082463
0.543	-0.081939
0.544	-0.124805
0.545	-0.192893
0.546	-0.25325
0.547	-0.282159
0.548	-0.279211
0.549	-0.257356
0.55	-0.224692
0.551	-0.182623
0.552	-0.137213
0.553	-0.104293
0.554	-0.097862
0.555	-0.117033
0.556	-0.14937
0.557	-0.178424
0.558	-0.186086
0.559	-0.160573
0.56	-0.104781
0.561	-0.035638
0.562	0.018141
0.563	0.029103
0.564	-0.00389
0.565	-0.054526
0.566	-0.093831
0.567	-0.108929
0.568	-0.10948
0.569	-0.120519
0.57	-0.160972
0.571	-0.22
0.572	-0.253761
0.573	-0.226828
0.574	-0.155495
0.575	-0.087184
0.576	-0.051302
0.577	-0.045487
0.578	-0.055208
0.579	-0.077909
0.58	-0.123378
0.581	-0.18579
0.582	-0.231477
0.583	-0.231077
0.584	-0.191688
0.585	-0.143773
0.586	-0.107197
0.587	-0.083005
0.588	-0.071494
0.589	-0.081187
0.59	-0.116883
0.591	-0.165919
0.592	-0.201862
0.593	-0.20738
0.594	-0.183984
0.595	-0.128547
0.596	-0.018247
0.597	0.157331
0.598	0.343019
0.599	0.416597
0.6	0.286234
0.601	0.007471
0.602	-0.2398
0.603	-0.319048
0.604	-0.249183
0.605	-0.140868
0.606	-0.073703
0.607	-0.057041
0.608	-0.067164
0.609	-0.08739
0.61	-0.115833
0.611	-0.147109
0.612	-0.161453
0.613	-0.144362
0.614	-0.107783
0.615	-0.078438
0.616	-0.07147
0.617	-0.082866
0.618	-0.1028
0.619	-0.130036
0.62	-0.168618
0.621	-0.208587
0.622	-0.222877
0.623	-0.198199
0.624	-0.155329
0.625	-0.12353
0.626	-0.110622
0.627	-0.105904
0.628	-0.09853
0.629	-0.090535
0.63	-0.093533
0.631	-0.109055
0.632	-0.12018
0.633	-0.111073
0.634	-0.086636
0.635	-0.065507
0.636	-0.060018
0.637	-0.068914
0.638	-0.085443
0.639	-0.107293
0.64	-0.136264
0.641	-0.163893
0.642	-0.167817
0.643	-0.140076
0.644	-0.102962
0.645	-0.080417
0.646	-0.073395
0.647	-0.068572
0.648	-0.056965
0.649	-0.044676
0.65	-0.045309
0.651	-0.059635
0.652	-0.071298
0.653	-0.065824
0.654	-0.047173
0.655	-0.032089
0.656	-0.032017
0.657	-0.045447
0.658	-0.064554
0.659	-0.084075
0.66	-0.103411
0.661	-0.117716
0.662	-0.114973
0.663	-0.093014
0.664	-0.066116
0.665	-0.048391
0.666	-0.043621
0.667	-0.047228
0.668	-0.052885
0.669	-0.062719
0.67	-0.082301
0.671	-0.102508
0.672	-0.102927
0.673	-0.076452
0.674	-0.039231
0.675	-0.014259
0.676	-0.011669
0.677	-0.026145
0.678	-0.045316
0.679	-0.058992
0.68	-0.06421
0.681	-0.059921
0.682	-0.045476
0.683	-0.029548
0.684	-0.025207
0.685	-0.034862
0.686	-0.050122
0.687	-0.061282
0.688	-0.064669
0.689	-0.065346
0.69	-0.068298
0.691	-0.065924
0.692	-0.043757
0.693	-0.000874
0.694	0.042568
0.695	0.061408
0.696	0.045854
0.697	0.006609
0.698	-0.033692
0.699	-0.056004
0.7	-0.056209
0.701	-0.041349
0.702	-0.02378
0.703	-0.017755
0.704	-0.028013
0.705	-0.046433
0.706	-0.063725
0.707	-0.076052
0.708	-0.083788
0.709	-0.089722
0.71	-0.093617
0.711	-0.086956
0.712	-0.061145
0.713	-0.023329
0.714	0.00551
0.715	0.01063
0.716	-0.005908
0.717	-0.030379
0.718	-0.045211
0.719	-0.039018
0.72	-0.013905
0.721	0.017811
0.722	0.037403
0.723	0.026156
0.724	-0.018947
0.725	-0.078838
0.726	-0.120604
0.727	-0.109784
0.728	-0.027652
0.729	0.109533
0.73	0.242629
0.731	0.294366
0.732	0.227729
0.733	0.085985
0.734	-0.038722
0.735	-0.086297
0.736	-0.071402
0.737	-0.042809
0.738	-0.024611
0.739	-0.010202
0.74	0.011521
0.741	0.040289
0.742	0.061558
0.743	0.057438
0.744	0.0263
0.745	-0.016454
0.746	-0.056196
0.747	-0.090454
0.748	-0.123403
0.749	-0.149435
0.75	-0.147448
0.751	-0.102075
0.752	-0.032078
0.753	0.01775
0.754	0.021176
0.755	-0.009217
0.756	-0.046483
0.757	-0.072098
0.758	-0.077452
0.759	-0.060883
0.76	-0.024655
0.761	0.024283
0.762	0.067118
0.763	0.080823
0.764	0.060254
0.765	0.020663
0.766	-0.021536
0.767	-0.061165
0.768	-0.095479
0.769	-0.109574
0.77	-0.08208
0.771	-0.012046
0.772	0.062997
0.773	0.094424
0.774	0.072494
0.775	0.027338
0.776	-0.012115
0.777	-0.035728
0.778	-0.041729
0.779	-0.027866
0.78	0.009947
0.781	0.069158
0.782	0.127152
0.783	0.14966
0.784	0.121078
0.785	0.057666
0.786	-0.011502
0.787	-0.068145
0.788	-0.103975
0.789	-0.106581
0.79	-0.062902
0.791	0.017741
0.792	0.091125
0.793	0.110449
0.794	0.075952
0.795	0.030738
0.796	0.013815
0.797	0.032213
0.798	0.062092
0.799	0.068329
0.8	0.03562
0.801	-0.011389
0.802	-0.025108
0.803	0.016674
0.804	0.087659
0.805	0.14358
0.806	0.15946
0.807	0.136685
0.808	0.089105
0.809	0.027849
0.81	-0.039147
0.811	-0.096432
0.812	-0.121281
0.813	-0.101532
0.814	-0.048859
0.815	0.011664
0.816	0.061384
0.817	0.092617
0.818	0.101389
0.819	0.085668
0.82	0.052991
0.821	0.029696
0.822	0.048589
0.823	0.113098
0.824	0.188415
0.825	0.234165
0.826	0.230934
0.827	0.182275
0.828	0.104618
0.829	0.014893
0.83	-0.071142
0.831	-0.133932
0.832	-0.155383
0.833	-0.132126
0.834	-0.079999
0.835	-0.022444
0.836	0.023205
0.837	0.047917
0.838	0.049845
0.839	0.034859
0.84	0.015794
0.841	0.013715
0.842	0.046299
0.843	0.103538
0.844	0.152548
0.845	0.168641
0.846	0.148336
0.847	0.102238
0.848	0.044994
0.849	-0.012866
0.85	-0.064361
0.851	-0.100435
0.852	-0.11164
0.853	-0.096533
0.854	-0.067689
0.855	-0.045766
0.856	-0.041525
0.857	-0.039129
0.858	0.0049
0.859	0.133603
0.86	0.340769
0.861	0.545216
0.862	0.628434
0.863	0.531604
0.864	0.324316
0.865	0.143836
0.866	0.064609
0.867	0.054473
0.868	0.042215
0.869	-0.006898
0.87	-0.076197
0.871	-0.128343
0.872	-0.140108
0.873	-0.114963
0.874	-0.0719
0.875	-0.029062
0.876	0.001287
0.877	0.012676
0.878	0.008742
0.879	0.002409
0.88	0.008913
0.881	0.041528
0.882	0.099874
0.883	0.159497
0.884	0.190011
0.885	0.181177
0.886	0.141251
0.887	0.079788
0.888	0.003164
0.889	-0.077647
0.89	-0.143951
0.891	-0.176505
0.892	-0.167997
0.893	-0.130462
0.894	-0.08556
0.895	-0.047642
0.896	-0.021014
0.897	-0.0047
0.898	0.007853
0.899	0.026877
0.9	0.062151
0.901	0.119851
0.902	0.19237
0.903	0.254327
0.904	0.281351
0.905	0.266258
0.906	0.212756
0.907	0.127236
0.908	0.022656
0.909	-0.077664
0.91	-0.145497
0.911	-0.160585
0.912	-0.126979
0.913	-0.074321
0.914	-0.032258
0.915	-0.009711
0.916	-0.002512
0.917	-0.004387
0.918	-0.005837
0.919	0.006375
0.92	0.046149
0.921	0.120322
0.922	0.213857
0.923	0.291552
0.924	0.325141
0.925	0.30728
0.926	0.239615
0.927	0.128286
0.928	-0.00482
0.929	-0.121794
0.93	-0.1864
0.931	-0.184548
0.932	-0.136609
0.933	-0.082824
0.934	-0.047852
0.935	-0.031312
0.936	-0.026858
0.937	-0.02984
0.938	-0.031174
0.939	-0.015039
0.94	0.037766
0.941	0.137119
0.942	0.263251
0.943	0.367497
0.944	0.405022
0.945	0.362177
0.946	0.253315
0.947	0.106371
0.948	-0.043203
0.949	-0.157075
0.95	-0.204854
0.951	-0.180132
0.952	-0.11267
0.953	-0.048153
0.954	-0.007749
0.955	0.014608
0.956	0.024626
0.957	0.020878
0.958	0.00872
0.959	0.008772
0.96	0.050443
0.961	0.149956
0.962	0.285231
0.963	0.399331
0.964	0.439739
0.965	0.390629
0.966	0.268571
0.967	0.104646
0.968	-0.062838
0.969	-0.192422
0.97	-0.250436
0.971	-0.230478
0.972	-0.166471
0.973	-0.105979
0.974	-0.065605
0.975	-0.031351
0.976	0.006076
0.977	0.035048
0.978	0.039079
0.979	0.020412
0.98	0.006923
0.981	0.043231
0.982	0.161789
0.983	0.339508
0.984	0.496276
0.985	0.551179
0.986	0.472717
0.987	0.284336
0.988	0.041988
0.989	-0.186081
0.99	-0.325137
0.991	-0.307716
0.992	-0.119656
0.993	0.150485
0.994	0.338935
0.995	0.33298
0.996	0.171595
0.997	-0.005623
0.998	-0.09462
0.999	-0.087293
1.0	-0.020523
1.001	0.091327
1.002	0.253389
1.003	0.438859
1.004	0.578977
1.005	0.609881
1.006	0.514639
1.007	0.324614
1.008	0.090914
1.009	-0.139864
1.01	-0.327086
1.011	-0.432941
1.012	-0.432263
1.013	-0.332334
1.014	-0.181992
1.015	-0.048862
1.016	0.018626
1.017	0.01226
1.018	-0.035795
1.019	-0.070247
1.02	-0.039215
1.021	0.086355
1.022	0.29374
1.023	0.517744
1.024	0.669645
1.025	0.687081
1.026	0.56114
1.027	0.330188
1.028	0.054218
1.029	-0.205706
1.03	-0.39441
1.031	-0.471297
1.032	-0.425927
1.033	-0.287896
1.034	-0.118861
1.035	0.013081
1.036	0.062823
1.037	0.029454
1.038	-0.03982
1.039	-0.074423
1.04	-0.018287
1.041	0.148227
1.042	0.396579
1.043	0.64849
1.044	0.808082
1.045	0.81148
1.046	0.652479
1.047	0.372468
1.048	0.035908
1.049	-0.282988
1.05	-0.508344
1.051	-0.583634
1.052	-0.498974
1.053	-0.304837
1.054	-0.093202
1.055	0.049228
1.056	0.080233
1.057	0.015755
1.058	-0.078492
1.059	-0.118808
1.06	-0.042732
1.061	0.166224
1.062	0.465432
1.063	0.759293
1.064	0.939895
1.065	0.936795
1.066	0.739902
1.067	0.392664
1.068	-0.023618
1.069	-0.403574
1.07	-0.643519
1.071	-0.682081
1.072	-0.531646
1.073	-0.276142
1.074	-0.029891
1.075	0.115015
1.076	0.12057
1.077	0.013515
1.078	-0.124209
1.079	-0.191227
1.08	-0.1105
1.081	0.138903
1.082	0.504176
1.083	0.869124
1.084	1.102575
1.085	1.115459
1.086	0.890513
1.087	0.480944
1.088	-0.005095
1.089	-0.43167
1.09	-0.680214
1.091	-0.696048
1.092	-0.511254
1.093	-0.228408
1.094	0.030082
1.095	0.170357
1.096	0.152551
1.097	0.005267
1.098	-0.178291
1.099	-0.27645
1.1	-0.190563
1.101	0.109265
1.102	0.556756
1.103	1.004064
1.104	1.285534
1.105	1.290883
1.106	1.002465
1.107	0.493499
1.108	-0.093129
1.109	-0.585914
1.11	-0.845086
1.111	-0.817479
1.112	-0.558948
1.113	-0.20277
1.114	0.107082
1.115	0.263802
1.116	0.221942
1.117	0.017178
1.118	-0.238062
1.119	-0.39693
1.12	-0.337586
1.121	-0.013922
1.122	0.52098
1.123	1.130499
1.124	1.636615
1.125	1.858311
1.126	1.652825
1.127	0.999359
1.128	0.083221
1.129	-0.752744
1.13	-1.202973
1.131	-1.17136
1.132	-0.786179
1.133	-0.282166
1.134	0.132608
1.135	0.341784
1.136	0.33425
1.137	0.187672
1.138	-0.014141
1.139	-0.33312
1.14	-1.068946
1.141	-2.552366
1.142	-4.662999
1.143	-6.673392
1.144	-7.764987
1.145	-7.549496
1.146	-6.059654
1.147	-3.554585
1.148	-0.449545
1.149	2.672199
1.15	5.063204
1.151	6.040383
1.152	5.479675
1.153	4.030112
1.154	2.593889
1.155	1.63127
1.156	1.066153
1.157	0.666042
1.158	0.341186
1.159	0.166262
1.16	0.257133
1.161	0.664684
1.162	1.324785
1.163	2.043732
1.164	2.549867
1.165	2.611582
1.166	2.144682
1.167	1.250453
1.168	0.17289
1.169	-0.79528
1.17	-1.4064
1.171	-1.529588
1.172	-1.194825
1.173	-0.58742
1.174	0.026325
1.175	0.422814
1.176	0.524953
1.177	0.41069
1.178	0.199661
1.179	-0.139342
1.18	-0.897222
1.181	-2.394006
1.182	-4.474584
1.183	-6.382427
1.184	-7.3159
1.185	-6.950078
1.186	-5.402706
1.187	-2.990361
1.188	-0.110126
1.189	2.727446
1.19	4.846504
1.191	5.628406
1.192	5.013192
1.193	3.6654
1.194	2.417345
1.195	1.626781
1.196	1.158955
1.197	0.786019
1.198	0.461291
1.199	0.308733
1.2	0.476342
1.201	1.01119
1.202	1.802923
1.203	2.60163
1.204	3.110079
1.205	3.101418
1.206	2.506661
1.207	1.443048
1.208	0.174015
1.209	-0.9734
1.21	-1.705894
1.211	-1.863519
1.212	-1.486087
1.213	-0.800389
1.214	-0.116694
1.215	0.320334
1.216	0.439269
1.217	0.339974
1.218	0.165314
1.219	-0.107274
1.22	-0.778445
1.221	-2.185508
1.222	-4.189194
1.223	-6.045046
1.224	-6.958437
1.225	-6.610364
1.226	-5.127366
1.227	-2.825171
1.228	-0.078974
1.229	2.62922
1.23	4.644762
1.231	5.366243
1.232	4.742326
1.233	3.426784
1.234	2.227284
1.235	1.478817
1.236	1.038337
1.237	0.688835
1.238	0.403751
1.239	0.319399
1.24	0.580076
1.241	1.213263
1.242	2.081964
1.243	2.917657
1.244	3.417845
1.245	3.360034
1.246	2.683694
1.247	1.514222
1.248	0.131582
1.249	-1.105032
1.25	-1.876136
1.251	-2.030412
1.252	-1.646601
1.253	-0.979767
1.254	-0.319028
1.255	0.151629
1.256	0.407955
1.257	0.531209
1.258	0.562878
1.259	0.352708
1.26	-0.438452
1.261	-2.047549
1.262	-4.191673
1.263	-6.0677
1.264	-6.922848
1.265	-6.507257
1.266	-4.988856
1.267	-2.692824
1.268	0.010394
1.269	2.649396
1.27	4.588824
1.271	5.246904
1.272	4.578702
1.273	3.234873
1.274	2.021517
1.275	1.276078
1.276	0.859842
1.277	0.557068
1.278	0.333983
1.279	0.314823
1.28	0.634257
1.281	1.312748
1.282	2.207229
1.283	3.045068
1.284	3.52433
1.285	3.430608
1.286	2.714341
1.287	1.509916
1.288	0.107778
1.289	-1.124691
1.29	-1.872021
1.291	-2.00081
1.292	-1.613663
1.293	-0.976249
1.294	-0.370332
1.295	0.020433
1.296	0.160222
1.297	0.145974
1.298	0.093001
1.299	-0.058181
1.3	-0.645398
1.301	-2.044748
1.302	-4.145749
1.303	-6.164856
1.304	-7.175236
1.305	-6.763694
1.306	-5.122213
1.307	-2.695386
1.308	0.08325
1.309	2.745499
1.31	4.673954
1.311	5.292633
1.312	4.558217
1.313	3.136377
1.314	1.860985
1.315	1.097188
1.316	0.720322
1.317	0.504596
1.318	0.385878
1.319	0.456252
1.32	0.829923
1.321	1.518295
1.322	2.377067
1.323	3.141712
1.324	3.533524
1.325	3.372638
1.326	2.637577
1.327	1.470716
1.328	0.141663
1.329	-1.036362
1.33	-1.807487
1.331	-2.045754
1.332	-1.788709
1.333	-1.223859
1.334	-0.608326
1.335	-0.14483
1.336	0.108917
1.337	0.227226
1.338	0.286106
1.339	0.173566
1.34	-0.485937
1.341	-2.050289
1.342	-4.326688
1.343	-6.440613
1.344	-7.427107
1.345	-6.895863
1.346	-5.091091
1.347	-2.504933
1.348	0.392987
1.349	3.095349
1.35	4.951285
1.351	5.402636
1.352	4.490677
1.353	2.965448
1.354	1.679185
1.355	0.970328
1.356	0.690181
1.357	0.595588
1.358	0.592455
1.359	0.724177
1.36	1.060181
1.361	1.611536
1.362	2.289681
1.363	2.907187
1.364	3.240286
1.365	3.122211
1.366	2.511896
1.367	1.513387
1.368	0.34189
1.369	-0.742036
1.37	-1.504176
1.371	-1.8096
1.372	-1.674894
1.373	-1.257137
1.374	-0.773127
1.375	-0.394785
1.376	-0.182441
1.377	-0.084805
1.378	0.01183
1.379	0.218727
1.38	0.596061
1.381	1.131936
1.382	1.734576
1.383	2.246049
1.384	2.496611
1.385	2.37599
1.386	1.885191
1.387	1.141013
1.388	0.319183
1.389	-0.42691
1.39	-1.006333
1.391	-1.367429
1.392	-1.467435
1.393	-1.303269
1.394	-0.963999
1.395	-0.604323
1.396	-0.343717
1.397	-0.192484
1.398	-0.065759
1.399	0.142083
1.4	0.48996
1.401	0.963638
1.402	1.478404
1.403	1.903623
1.404	2.106339
1.405	1.99573
1.406	1.555943
1.407	0.856735
1.408	0.036897
1.409	-0.72818
1.41	-1.273357
1.411	-1.501444
1.412	-1.422554
1.413	-1.145782
1.414	-0.818492
1.415	-0.550682
1.416	-0.376454
1.417	-0.260229
1.418	-0.12837
1.419	0.088196
1.42	0.41987
1.421	0.843317
1.422	1.282727
1.423	1.631399
1.424	1.787291
1.425	1.683935
1.426	1.311566
1.427	0.725762
1.428	0.03917
1.429	-0.602005
1.43	-1.058095
1.431	-1.247961
1.432	-1.186132
1.433	-0.969077
1.434	-0.713515
1.435	-0.499722
1.436	-0.351495
1.437	-0.240364
1.438	-0.107563
1.439	0.09983
1.44	0.400101
1.441	0.766888
1.442	1.133127
1.443	1.409864
1.444	1.515958
1.445	1.404142
1.446	1.073716
1.447	0.572526
1.448	-0.004132
1.449	-0.529323
1.45	-0.887274
1.451	-1.023508
1.452	-0.96824
1.453	-0.80806
1.454	-0.627465
1.455	-0.475218
1.456	-0.361442
1.457	-0.261188
1.458	-0.12921
1.459	0.072406
1.46	0.352769
1.461	0.684442
1.462	1.006084
1.463	1.239109
1.464	1.315534
1.465	1.200651
1.466	0.900856
1.467	0.463219
1.468	-0.026964
1.469	-0.461701
1.47	-0.748044
1.471	-0.851437
1.472	-0.808973
1.473	-0.692614
1.474	-0.559909
1.475	-0.438994
1.476	-0.333726
1.477	-0.226803
1.478	-0.09232
1.479	0.082074
1.48	0.288917
1.481	0.520353
1.482	0.770949
1.483	1.001246
1.484	1.127053
1.485	1.069111
1.486	0.807838
1.487	0.400938
1.488	-0.041275
1.489	-0.406744
1.49	-0.624083
1.491	-0.684796
1.492	-0.639408
1.493	-0.555167
1.494	-0.471871
1.495	-0.39914
1.496	-0.331821
1.497	-0.253641
1.498	-0.142168
1.499	0.015246
1.5	0.211734
1.501	0.4319
1.502	0.660261
1.503	0.8625
1.504	0.97671
1.505	0.948278
1.506	0.769042
1.507	0.477675
1.508	0.130947
1.509	-0.218166
1.51	-0.519777
1.511	-0.723346
1.512	-0.790422
1.513	-0.712989
1.514	-0.512951
1.515	-0.227652
1.516	0.085981
1.517	0.337019
1.518	0.435785
1.519	0.379445
1.52	0.284911
1.521	0.299425
1.522	0.466217
1.523	0.690318
1.524	0.834752
1.525	0.8249
1.526	0.667071
1.527	0.410109
1.528	0.107466
1.529	-0.194259
1.53	-0.446087
1.531	-0.597569
1.532	-0.622519
1.533	-0.543046
1.534	-0.418611
1.535	-0.304857
1.536	-0.221204
1.537	-0.15155
1.538	-0.067602
1.539	0.046131
1.54	0.186491
1.541	0.344384
1.542	0.504416
1.543	0.633047
1.544	0.689116
1.545	0.648696
1.546	0.516134
1.547	0.317396
1.548	0.085915
1.549	-0.144392
1.55	-0.335527
1.551	-0.447307
1.552	-0.457253
1.553	-0.382668
1.554	-0.273021
1.555	-0.173703
1.556	-0.099404
1.557	-0.035994
1.558	0.040385
1.559	0.142472
1.56	0.266303
1.561	0.400327
1.562	0.526556
1.563	0.6159
1.564	0.638471
1.565	0.58074
1.566	0.450341
1.567	0.268781
1.568	0.063418
1.569	-0.13509
1.57	-0.29433
1.571	-0.386109
1.572	-0.399478
1.573	-0.35302
1.574	-0.2847
1.575	-0.222943
1.576	-0.171021
1.577	-0.113306
1.578	-0.03156
1.579	0.078927
1.58	0.206773
1.581	0.334098
1.582	0.441813
1.583	0.509938
1.584	0.521349
1.585	0.467805
1.586	0.354285
1.587	0.197942
1.588	0.022211
1.589	-0.145725
1.59	-0.273088
1.591	-0.329599
1.592	-0.310488
1.593	-0.246309
1.594	-0.178181
1.595	-0.126886
1.596	-0.087169
1.597	-0.040016
1.598	0.031448
1.599	0.130376
1.6	0.246689
1.601	0.36269
1.602	0.455365
1.603	0.503921
1.604	0.500289
1.605	0.447146
1.606	0.349932
1.607	0.219151
1.608	0.07694
1.609	-0.045595
1.61	-0.117708
1.611	-0.124359
1.612	-0.084807
1.613	-0.043526
1.614	-0.030953
1.615	-0.04362
1.616	-0.057878
1.617	-0.048729
1.618	-0.002253
1.619	0.078999
1.62	0.180326
1.621	0.282057
1.622	0.363431
1.623	0.406705
1.624	0.400688
1.625	0.34099
1.626	0.23254
1.627	0.094385
1.628	-0.042703
1.629	-0.145719
1.63	-0.189776
1.631	-0.175023
1.632	-0.137423
1.633	-0.120411
1.634	-0.13331
1.635	-0.15237
1.636	-0.150107
1.637	-0.112512
1.638	-0.042033
1.639	0.045885
1.64	0.129992
1.641	0.192461
1.642	0.230161
1.643	0.253607
1.644	0.269093
1.645	0.278185
1.646	0.299979
1.647	0.360934
1.648	0.437967
1.649	0.436955
1.65	0.276951
1.651	0.00276
1.652	-0.231641
1.653	-0.308668
1.654	-0.241075
1.655	-0.119699
1.656	-0.015302
1.657	0.052945
1.658	0.088645
1.659	0.092815
1.66	0.072944
1.661	0.061982
1.662	0.099285
1.663	0.181718
1.664	0.256571
1.665	0.272246
1.666	0.220575
1.667	0.128647
1.668	0.024475
1.669	-0.078528
1.67	-0.168555
1.671	-0.225321
1.672	-0.234129
1.673	-0.203538
1.674	-0.157451
1.675	-0.111806
1.676	-0.067885
1.677	-0.024711
1.678	0.010727
1.679	0.026912
1.68	0.025062
1.681	0.031541
1.682	0.07428
1.683	0.145323
1.684	0.204967
1.685	0.218963
1.686	0.182866
1.687	0.116025
1.688	0.037387
1.689	-0.044823
1.69	-0.11958
1.691	-0.165133
1.692	-0.164408
1.693	-0.123723
1.694	-0.067504
1.695	-0.015106
1.696	0.029028
1.697	0.066264
1.698	0.09493
1.699	0.109899
1.7	0.113651
1.701	0.127127
1.702	0.169671
1.703	0.227078
1.704	0.260089
1.705	0.24309
1.706	0.184366
1.707	0.109802
1.708	0.034705
1.709	-0.038909
1.71	-0.10403
1.711	-0.143579
1.712	-0.145828
1.713	-0.11863
1.714	-0.082468
1.715	-0.050756
1.716	-0.024107
1.717	0.000841
1.718	0.025111
1.719	0.046414
1.72	0.06522
1.721	0.090535
1.722	0.127293
1.723	0.161768
1.724	0.171678
1.725	0.14809
1.726	0.102806
1.727	0.05233
1.728	-0.000379
1.729	-0.057752
1.73	-0.108982
1.731	-0.134169
1.732	-0.12504
1.733	-0.09444
1.734	-0.062877
1.735	-0.040006
1.736	-0.023411
1.737	-0.006337
1.738	0.016982
1.739	0.046392
1.74	0.079056
1.741	0.116647
1.742	0.158382
1.743	0.190924
1.744	0.197072
1.745	0.172584
1.746	0.127293
1.747	0.072436
1.748	0.015457
1.749	-0.034128
1.75	-0.063964
1.751	-0.068035
1.752	-0.054504
1.753	-0.040379
1.754	-0.035284
1.755	-0.035008
1.756	-0.03144
1.757	-0.019998
1.758	-1e-06
1.759	0.025596
1.76	0.054456
1.761	0.086127
1.762	0.113991
1.763	0.123843
1.764	0.106577
1.765	0.067744
1.766	0.021002
1.767	-0.02287
1.768	-0.056129
1.769	-0.070705
1.77	-0.061081
1.771	-0.031342
1.772	-0.001744
1.773	0.001171
1.774	-0.0308
1.775	-0.080668
1.776	-0.117679
1.777	-0.103411
1.778	-0.001774
1.779	0.192039
1.78	0.418926
1.781	0.560947
1.782	0.519387
1.783	0.313727
1.784	0.077238
1.785	-0.066066
1.786	-0.09917
1.787	-0.082677
1.788	-0.067176
1.789	-0.05794
1.79	-0.039367
1.791	-0.008779
1.792	0.012463
1.793	0.002763
1.794	-0.031161
1.795	-0.063517
1.796	-0.076861
1.797	-0.07092
1.798	-0.055733
1.799	-0.041605
1.8	-0.032991
1.801	-0.028654
1.802	-0.02041
1.803	0.003339
1.804	0.040082
1.805	0.068258
1.806	0.071076
1.807	0.053569
1.808	0.026357
1.809	-0.015372
1.81	-0.077676
1.811	-0.137464
1.812	-0.155799
1.813	-0.123692
1.814	-0.067395
1.815	-0.012611
1.816	0.032396
1.817	0.062237
1.818	0.062028
1.819	0.018226
1.82	-0.056478
1.821	-0.115122
1.822	-0.111652
1.823	-0.047507
1.824	0.032264
1.825	0.083548
1.826	0.093763
1.827	0.079003
1.828	0.056277
1.829	0.023165
1.83	-0.025872
1.831	-0.074262
1.832	-0.093314
1.833	-0.073671
1.834	-0.031697
1.835	0.012495
1.836	0.048719
1.837	0.06946
1.838	0.06332
1.839	0.0228
1.84	-0.039424
1.841	-0.085098
1.842	-0.079034
1.843	-0.026693
1.844	0.032714
1.845	0.065016
1.846	0.065268
1.847	0.052291
1.848	0.038027
1.849	0.009207
1.85	-0.044592
1.851	-0.099856
1.852	-0.119941
1.853	-0.096797
1.854	-0.052524
1.855	-0.00898
1.856	0.025284
1.857	0.044976
1.858	0.042708
1.859	0.015313
1.86	-0.02497
1.861	-0.048341
1.862	-0.033306
1.863	0.007506
1.864	0.041797
1.865	0.048835
1.866	0.033331
1.867	0.01489
1.868	0.001506
1.869	-0.017765
1.87	-0.048733
1.871	-0.075588
1.872	-0.075742
1.873	-0.043381
1.874	0.007507
1.875	0.05797
1.876	0.093177
1.877	0.103153
1.878	0.085918
1.879	0.048933
1.88	0.008721
1.881	-0.012622
1.882	-0.005406
1.883	0.015379
1.884	0.026654
1.885	0.020572
1.886	0.009464
1.887	0.00852
1.888	0.01351
1.889	0.00548
1.89	-0.022388
1.891	-0.053934
1.892	-0.06676
1.893	-0.053608
1.894	-0.024876
1.895	0.004329
1.896	0.023163
1.897	0.028212
1.898	0.024164
1.899	0.01826
1.9	0.016928
1.901	0.025291
1.902	0.040049
1.903	0.047545
1.904	0.035212
1.905	0.002923
1.906	-0.037135
1.907	-0.071469
1.908	-0.088744
1.909	-0.066431
1.91	0.028397
1.911	0.197399
1.912	0.365184
1.913	0.41071
1.914	0.283848
1.915	0.072536
1.916	-0.081252
1.917	-0.112349
1.918	-0.059396
1.919	0.005355
1.92	0.042776
1.921	0.054098
1.922	0.050982
1.923	0.037528
1.924	0.015447
1.925	-0.008089
1.926	-0.024054
1.927	-0.033108
1.928	-0.046563
1.929	-0.071041
1.93	-0.097562
1.931	-0.110541
1.932	-0.105831
1.933	-0.093487
1.934	-0.082772
1.935	-0.074872
1.936	-0.068161
1.937	-0.059397
1.938	-0.044863
1.939	-0.025902
1.94	-0.007537
1.941	0.005958
1.942	0.010877
1.943	0.00535
1.944	-0.008462
1.945	-0.024921
1.946	-0.038478
1.947	-0.048407
1.948	-0.056999
1.949	-0.063294
1.95	-0.062309
1.951	-0.052285
1.952	-0.042379
1.953	-0.044195
1.954	-0.055526
1.955	-0.064414
1.956	-0.063097
1.957	-0.049769
1.958	-0.02674
1.959	0.000433
1.96	0.027532
1.961	0.051581
1.962	0.065147
1.963	0.058205
1.964	0.029171
1.965	-0.009234
1.966	-0.040327
1.967	-0.056755
1.968	-0.059184
1.969	-0.048744
1.97	-0.026855
1.971	-0.003086
1.972	0.003728
1.973	-0.015604
1.974	-0.047343
1.975	-0.070244
1.976	-0.073743
1.977	-0.059138
1.978	-0.03379
1.979	-0.003997
1.98	0.028513
1.981	0.060153
1.982	0.079652
1.983	0.07515
1.984	0.046861
1.985	0.007429
1.986	-0.031326
1.987	-0.062924
1.988	-0.078754
1.989	-0.068687
1.99	-0.031838
1.991	0.012247
1.992	0.030586
1.993	0.008765
1.994	-0.034092
1.995	-0.068877
1.996	-0.080168
1.997	-0.06795
1.998	-0.039262
1.999	-4.5e-05
2.0	0.046156
2.001	0.092412
2.002	0.127115
2.003	0.144436
2.004	0.153064
2.005	0.164434
2.006	0.174827
2.007	0.168962
2.008	0.132513
2.009	0.057788
2.01	-0.043256
2.011	-0.130746
2.012	-0.163697
2.013	-0.137324
2.014	-0.080286
2.015	-0.020798
2.016	0.029492
2.017	0.064104
2.018	0.070974
2.019	0.039087
2.02	-0.020629
2.021	-0.065503
2.022	-0.053489
2.023	0.013558
2.024	0.094351
2.025	0.146281
2.026	0.15285
2.027	0.124601
2.028	0.075343
2.029	0.006365
2.03	-0.075317
2.031	-0.139668
2.032	-0.1552
2.033	-0.122122
2.034	-0.069925
2.035	-0.027533
2.036	-0.00762
2.037	-0.009759
2.038	-0.019805
2.039	-0.004993
2.04	0.081084
2.041	0.263826
2.042	0.486613
2.043	0.610867
2.044	0.534226
2.045	0.302788
2.046	0.0706
2.047	-0.047759
2.048	-0.06348
2.049	-0.060257
2.05	-0.088789
2.051	-0.13056
2.052	-0.14405
2.053	-0.118152
2.054	-0.074545
2.055	-0.035452
2.056	-0.006658
2.057	0.014631
2.058	0.028915
2.059	0.032223
2.06	0.026341
2.061	0.025678
2.062	0.041586
2.063	0.068283
2.064	0.090646
2.065	0.095436
2.066	0.077704
2.067	0.040898
2.068	-0.012381
2.069	-0.080364
2.07	-0.147758
2.071	-0.185576
2.072	-0.175906
2.073	-0.131346
2.074	-0.081174
2.075	-0.043149
2.076	-0.016334
2.077	0.007907
2.078	0.034522
2.079	0.059554
2.08	0.07776
2.081	0.091753
2.082	0.107025
2.083	0.123469
2.084	0.132722
2.085	0.122199
2.086	0.086224
2.087	0.030207
2.088	-0.037597
2.089	-0.108736
2.09	-0.166733
2.091	-0.189355
2.092	-0.168932
2.093	-0.123775
2.094	-0.08
2.095	-0.048536
2.096	-0.024321
2.097	0.002426
2.098	0.036643
2.099	0.075022
2.1	0.112193
2.101	0.145492
2.102	0.172068
2.103	0.187478
2.104	0.185188
2.105	0.158299
2.106	0.106843
2.107	0.039273
2.108	-0.033531
2.109	-0.100333
2.11	-0.146272
2.111	-0.156715
2.112	-0.134064
2.113	-0.101006
2.114	-0.076872
2.115	-0.062516
2.116	-0.048562
2.117	-0.025423
2.118	0.011109
2.119	0.058627
2.12	0.113021
2.121	0.168441
2.122	0.212669
2.123	0.22999
2.124	0.209402
2.125	0.152063
2.126	0.070843
2.127	-0.018794
2.128	-0.101689
2.129	-0.160124
2.13	-0.178337
2.131	-0.155475
2.132	-0.11314
2.133	-0.077767
2.134	-0.055899
2.135	-0.03825
2.136	-0.016981
2.137	0.010173
2.138	0.042315
2.139	0.079085
2.14	0.123278
2.141	0.17459
2.142	0.221822
2.143	0.245209
2.144	0.227217
2.145	0.163896
2.146	0.067264
2.147	-0.040469
2.148	-0.132532
2.149	-0.184233
2.15	-0.184641
2.151	-0.149921
2.152	-0.116282
2.153	-0.105254
2.154	-0.107182
2.155	-0.104284
2.156	-0.090268
2.157	-0.065685
2.158	-0.029008
2.159	0.025562
2.16	0.102618
2.161	0.194563
2.162	0.276892
2.163	0.317945
2.164	0.296654
2.165	0.211806
2.166	0.077487
2.167	-0.079777
2.168	-0.218223
2.169	-0.283132
2.17	-0.22469
2.171	-0.039977
2.172	0.195161
2.173	0.353626
2.174	0.336029
2.175	0.151694
2.176	-0.073768
2.177	-0.199668
2.178	-0.178623
2.179	-0.056249
2.18	0.101583
2.181	0.250702
2.182	0.359905
2.183	0.400618
2.184	0.359539
2.185	0.251286
2.186	0.111497
2.187	-0.024153
2.188	-0.142496
2.189	-0.251368
2.19	-0.347065
2.191	-0.398552
2.192	-0.377506
2.193	-0.292566
2.194	-0.183524
2.195	-0.089419
2.196	-0.029582
2.197	-0.005034
2.198	-0.005698
2.199	-0.014569
2.2	-0.002695
2.201	0.066558
2.202	0.19858
2.203	0.340209
2.204	0.41667
2.205	0.38783
2.206	0.265447
2.207	0.09218
2.208	-0.090719
2.209	-0.255715
2.21	-0.376842
2.211	-0.424676
2.212	-0.386048
2.213	-0.284043
2.214	-0.167288
2.215	-0.078189
2.216	-0.033618
2.217	-0.025141
2.218	-0.028301
2.219	-0.015436
2.22	0.03858
2.221	0.149888
2.222	0.301119
2.223	0.433598
2.224	0.485353
2.225	0.430615
2.226	0.284088
2.227	0.083398
2.228	-0.129933
2.229	-0.318007
2.23	-0.444093
2.231	-0.477383
2.232	-0.413062
2.233	-0.288142
2.234	-0.164227
2.235	-0.087565
2.236	-0.066546
2.237	-0.076699
2.238	-0.079347
2.239	-0.041516
2.24	0.055344
2.241	0.209138
2.242	0.384872
2.243	0.520985
2.244	0.560569
2.245	0.47886
2.246	0.291212
2.247	0.042704
2.248	-0.212291
2.249	-0.42358
2.25	-0.54774
2.251	-0.5559
2.252	-0.454181
2.253	-0.295365
2.254	-0.15436
2.255	-0.082193
2.256	-0.081284
2.257	-0.113328
2.258	-0.124993
2.259	-0.074711
2.26	0.053647
2.261	0.244091
2.262	0.446394
2.263	0.594673
2.264	0.636526
2.265	0.54893
2.266	0.343789
2.267	0.067003
2.268	-0.216925
2.269	-0.445773
2.27	-0.569861
2.271	-0.562401
2.272	-0.441335
2.273	-0.273466
2.274	-0.138264
2.275	-0.083547
2.276	-0.106568
2.277	-0.160847
2.278	-0.182531
2.279	-0.122005
2.28	0.037099
2.281	0.269361
2.282	0.510147
2.283	0.680142
2.284	0.717797
2.285	0.598246
2.286	0.339453
2.287	-0.000929
2.288	-0.340859
2.289	-0.596874
2.29	-0.705968
2.291	-0.648437
2.292	-0.466839
2.293	-0.251958
2.294	-0.094207
2.295	-0.042171
2.296	-0.088874
2.297	-0.180729
2.298	-0.244901
2.299	-0.217858
2.3	-0.060656
2.301	0.230163
2.302	0.613075
2.303	0.998766
2.304	1.251484
2.305	1.220643
2.306	0.836522
2.307	0.205045
2.308	-0.428261
2.309	-0.836889
2.31	-0.934006
2.311	-0.773869
2.312	-0.488128
2.313	-0.214027
2.314	-0.045292
2.315	-0.016991
2.316	-0.1059
2.317	-0.239524
2.318	-0.322731
2.319	-0.274291
2.32	-0.061111
2.321	0.278617
2.322	0.642624
2.323	0.906637
2.324	0.972671
2.325	0.799211
2.326	0.413922
2.327	-0.087647
2.328	-0.566131
2.329	-0.884855
2.33	-0.96086
2.331	-0.802689
2.332	-0.507625
2.333	-0.209218
2.334	-0.018376
2.335	0.010331
2.336	-0.105824
2.337	-0.282928
2.338	-0.402767
2.339	-0.360335
2.34	-0.110335
2.341	0.303538
2.342	0.757192
2.343	1.094988
2.344	1.190412
2.345	0.989391
2.346	0.528677
2.347	-0.070189
2.348	-0.635103
2.349	-0.999657
2.35	-1.066883
2.351	-0.85718
2.352	-0.496071
2.353	-0.142945
2.354	0.073219
2.355	0.086788
2.356	-0.083279
2.357	-0.333302
2.358	-0.511807
2.359	-0.482393
2.36	-0.185921
2.361	0.323797
2.362	0.890312
2.363	1.315698
2.364	1.441495
2.365	1.203692
2.366	0.650059
2.367	-0.071277
2.368	-0.753029
2.369	-1.194577
2.37	-1.276799
2.371	-1.019015
2.372	-0.569731
2.373	-0.125904
2.374	0.155729
2.375	0.214422
2.376	0.099765
2.377	-0.087204
2.378	-0.339318
2.379	-0.877819
2.38	-2.042101
2.381	-3.844016
2.382	-5.702452
2.383	-6.884309
2.384	-7.043653
2.385	-6.133395
2.386	-4.187134
2.387	-1.421684
2.388	1.663084
2.389	4.328483
2.39	5.788586
2.391	5.672961
2.392	4.405528
2.393	2.891348
2.394	1.769032
2.395	1.101524
2.396	0.673059
2.397	0.350006
2.398	0.165449
2.399	0.215632
2.4	0.556566
2.401	1.153022
2.402	1.853958
2.403	2.419072
2.404	2.61046
2.405	2.295939
2.406	1.507894
2.407	0.434467
2.408	-0.642934
2.409	-1.435174
2.41	-1.739775
2.411	-1.522237
2.412	-0.939346
2.413	-0.273352
2.414	0.205949
2.415	0.373875
2.416	0.288361
2.417	0.096602
2.418	-0.159464
2.419	-0.705403
2.42	-1.908521
2.421	-3.801771
2.422	-5.792947
2.423	-7.054897
2.424	-7.106912
2.425	-5.935574
2.426	-3.80329
2.427	-1.081657
2.428	1.771832
2.429	4.132942
2.43	5.31948
2.431	5.059899
2.432	3.846324
2.433	2.571999
2.434	1.78881
2.435	1.44028
2.436	1.189645
2.437	0.831855
2.438	0.452559
2.439	0.318833
2.44	0.639509
2.441	1.38519
2.442	2.289053
2.443	2.990928
2.444	3.195659
2.445	2.770395
2.446	1.778789
2.447	0.460768
2.448	-0.836616
2.449	-1.767769
2.45	-2.109885
2.451	-1.84991
2.452	-1.191626
2.453	-0.459825
2.454	0.059262
2.455	0.245998
2.456	0.172764
2.457	0.002983
2.458	-0.212028
2.459	-0.700669
2.46	-1.850157
2.461	-3.729379
2.462	-5.751749
2.463	-7.021545
2.464	-7.004996
2.465	-5.754816
2.466	-3.630835
2.467	-1.012574
2.468	1.701149
2.469	3.948251
2.47	5.085719
2.471	4.841988
2.472	3.665509
2.473	2.383467
2.474	1.502821
2.475	0.993723
2.476	0.628408
2.477	0.317989
2.478	0.161976
2.479	0.320585
2.48	0.874105
2.481	1.741949
2.482	2.683071
2.483	3.374529
2.484	3.53003
2.485	3.008563
2.486	1.879406
2.487	0.419872
2.488	-0.972608
2.489	-1.928408
2.49	-2.242656
2.491	-1.945353
2.492	-1.272823
2.493	-0.546155
2.494	-0.027132
2.495	0.178887
2.496	0.140548
2.497	0.00945
2.498	-0.168784
2.499	-0.61691
2.5	-1.719155
2.501	-3.55773
2.502	-5.562234
2.503	-6.831673
2.504	-6.815208
2.505	-5.568507
2.506	-3.472423
2.507	-0.916529
2.508	1.714192
2.509	3.884362
2.51	4.969245
2.511	4.697788
2.512	3.51122
2.513	2.232665
2.514	1.369776
2.515	0.893292
2.516	0.569178
2.517	0.298098
2.518	0.17811
2.519	0.380568
2.52	0.995156
2.521	1.93308
2.522	2.926641
2.523	3.625237
2.524	3.734624
2.525	3.131
2.526	1.916505
2.527	0.398132
2.528	-1.016757
2.529	-1.96626
2.53	-2.262721
2.531	-1.960751
2.532	-1.313479
2.533	-0.631522
2.534	-0.14734
2.535	0.055642
2.536	0.046433
2.537	-0.037985
2.538	-0.166233
2.539	-0.570178
2.54	-1.643645
2.541	-3.477676
2.542	-5.498751
2.543	-6.787166
2.544	-6.775433
2.545	-5.524552
2.546	-3.433584
2.547	-0.896038
2.548	1.717167
2.549	3.877114
2.55	4.944992
2.551	4.63647
2.552	3.400394
2.553	2.080351
2.554	1.201042
2.555	0.739328
2.556	0.456546
2.557	0.245476
2.558	0.197711
2.559	0.472514
2.56	1.134589
2.561	2.066337
2.562	2.997352
2.563	3.625635
2.564	3.736799
2.565	3.258847
2.566	2.261011
2.567	0.920395
2.568	-0.50685
2.569	-1.700239
2.57	-2.349038
2.571	-2.31307
2.572	-1.733733
2.573	-0.957102
2.574	-0.320542
2.575	0.022172
2.576	0.123692
2.577	0.119331
2.578	0.020366
2.579	-0.437099
2.58	-1.641663
2.581	-3.613842
2.582	-5.698062
2.583	-6.952053
2.584	-6.84543
2.585	-5.487839
2.586	-3.303549
2.587	-0.694943
2.588	1.942299
2.589	4.038654
2.59	4.952336
2.591	4.470445
2.592	3.133592
2.593	1.815098
2.594	1.007285
2.595	0.648059
2.596	0.478219
2.597	0.373325
2.598	0.392589
2.599	0.658629
2.6	1.234885
2.601	2.054911
2.602	2.907524
2.603	3.497355
2.604	3.564645
2.605	3.000924
2.606	1.897328
2.607	0.506862
2.608	-0.839597
2.609	-1.827786
2.61	-2.259904
2.611	-2.128503
2.612	-1.612217
2.613	-0.981865
2.614	-0.466376
2.615	-0.156238
2.616	0.00311
2.617	0.11028
2.618	0.122458
2.619	-0.27677
2.62	-1.504635
2.621	-3.573575
2.622	-5.788365
2.623	-7.152918
2.624	-7.090172
2.625	-5.687033
2.626	-3.376518
2.627	-0.603004
2.628	2.173156
2.629	4.327836
2.63	5.204651
2.631	4.613808
2.632	3.137914
2.633	1.696827
2.634	0.821521
2.635	0.471468
2.636	0.38737
2.637	0.417475
2.638	0.568327
2.639	0.903389
2.64	1.445438
2.641	2.126743
2.642	2.783736
2.643	3.200428
2.644	3.18894
2.645	2.669706
2.646	1.709951
2.647	0.507578
2.648	-0.664268
2.649	-1.539268
2.65	-1.951106
2.651	-1.898201
2.652	-1.530801
2.653	-1.059378
2.654	-0.65317
2.655	-0.387357
2.656	-0.237698
2.657	-0.11023
2.658	0.102354
2.659	0.467501
2.66	0.987659
2.661	1.593735
2.662	2.15061
2.663	2.490287
2.664	2.47089
2.665	2.033797
2.666	1.235574
2.667	0.244303
2.668	-0.708315
2.669	-1.407975
2.67	-1.734671
2.671	-1.701389
2.672	-1.429922
2.673	-1.076547
2.674	-0.764232
2.675	-0.548382
2.676	-0.408606
2.677	-0.27056
2.678	-0.051843
2.679	0.297166
2.68	0.773637
2.681	1.314415
2.682	1.799213
2.683	2.082418
2.684	2.049091
2.685	1.661826
2.686	0.979082
2.687	0.145423
2.688	-0.651254
2.689	-1.244525
2.69	-1.54149
2.691	-1.537931
2.692	-1.292293
2.693	-0.890693
2.694	-0.446166
2.695	-0.099997
2.696	0.043124
2.697	0.015001
2.698	-0.008204
2.699	0.160275
2.7	0.568643
2.701	1.102081
2.702	1.570751
2.703	1.81346
2.704	1.75028
2.705	1.380998
2.706	0.772771
2.707	0.054041
2.708	-0.61418
2.709	-1.091732
2.71	-1.309204
2.711	-1.292299
2.712	-1.134618
2.713	-0.932612
2.714	-0.743213
2.715	-0.579503
2.716	-0.423611
2.717	-0.251283
2.718	-0.051145
2.719	0.182558
2.72	0.467612
2.721	0.815723
2.722	1.179875
2.723	1.445864
2.724	1.494511
2.725	1.268829
2.726	0.803261
2.727	0.205999
2.728	-0.394801
2.729	-0.891487
2.73	-1.203011
2.731	-1.283946
2.732	-1.154053
2.733	-0.904265
2.734	-0.6442
2.735	-0.436343
2.736	-0.279618
2.737	-0.138231
2.738	0.023304
2.739	0.225745
2.74	0.481778
2.741	0.786985
2.742	1.089367
2.743	1.293223
2.744	1.308083
2.745	1.097334
2.746	0.698077
2.747	0.199238
2.748	-0.303151
2.749	-0.727069
2.75	-1.001894
2.751	-1.082019
2.752	-0.980427
2.753	-0.775054
2.754	-0.559591
2.755	-0.385285
2.756	-0.249378
2.757	-0.120699
2.758	0.030648
2.759	0.219669
2.76	0.451556
2.761	0.716033
2.762	0.967253
2.763	1.129961
2.764	1.134696
2.765	0.953171
2.766	0.614472
2.767	0.18765
2.768	-0.249988
2.769	-0.6245
2.77	-0.86687
2.771	-0.934541
2.772	-0.84441
2.773	-0.670292
2.774	-0.491279
2.775	-0.345091
2.776	-0.225398
2.777	-0.104798
2.778	0.039809
2.779	0.215286
2.78	0.418441
2.781	0.635218
2.782	0.828686
2.783	0.944802
2.784	0.93459
2.785	0.776107
2.786	0.489124
2.787	0.129353
2.788	-0.232089
2.789	-0.525465
2.79	-0.696223
2.791	-0.724229
2.792	-0.640851
2.793	-0.513562
2.794	-0.397603
2.795	-0.306495
2.796	-0.222313
2.797	-0.119722
2.798	0.013339
2.799	0.171212
2.8	0.34497
2.801	0.52591
2.802	0.689212
2.803	0.790038
2.804	0.782341
2.805	0.643346
2.806	0.388835
2.807	0.070247
2.808	-0.242175
2.809	-0.482145
2.81	-0.609604
2.811	-0.623956
2.812	-0.560694
2.813	-0.466493
2.814	-0.370847
2.815	-0.280113
2.816	-0.186559
2.817	-0.07867
2.818	0.047476
2.819	0.186078
2.82	0.329907
2.821	0.468189
2.822	0.577062
2.823	0.628785
2.824	0.617496
2.825	0.569795
2.826	0.515612
2.827	0.440316
2.828	0.284082
2.829	0.0176
2.83	-0.287812
2.831	-0.501922
2.832	-0.552174
2.833	-0.473751
2.834	-0.351755
2.835	-0.243754
2.836	-0.156371
2.837	-0.069913
2.838	0.030832
2.839	0.148115
2.84	0.278944
2.841	0.41387
2.842	0.5266
2.843	0.578431
2.844	0.539892
2.845	0.407659
2.846	0.206531
2.847	-0.017549
2.848	-0.212293
2.849	-0.339301
2.85	-0.390072
2.851	-0.387935
2.852	-0.365435
2.853	-0.336521
2.854	-0.298262
2.855	-0.247366
2.856	-0.182786
2.857	-0.102654
2.858	-0.00636
2.859	0.104464
2.86	0.2281
2.861	0.356589
2.862	0.463503
2.863	0.510452
2.864	0.471858
2.865	0.349519
2.866	0.171014
2.867	-0.018688
2.868	-0.173337
2.869	-0.263982
2.87	-0.290602
2.871	-0.280549
2.872	-0.264668
2.873	-0.25113
2.874	-0.23065
2.875	-0.19681
2.876	-0.149631
2.877	-0.088066
2.878	-0.007971
2.879	0.093755
2.88	0.214467
2.881	0.337474
2.882	0.426861
2.883	0.445749
2.884	0.383075
2.885	0.256394
2.886	0.098632
2.887	-0.053316
2.888	-0.169256
2.889	-0.233159
2.89	-0.248567
2.891	-0.239713
2.892	-0.231601
2.893	-0.226831
2.894	-0.213656
2.895	-0.186722
2.896	-0.148067
2.897	-0.09565
2.898	-0.020349
2.899	0.085507
2.9	0.216428
2.901	0.343031
2.902	0.418556
2.903	0.411117
2.904	0.325386
2.905	0.190433
2.906	0.040366
2.907	-0.092502
2.908	-0.181267
2.909	-0.213174
2.91	-0.200155
2.911	-0.175883
2.912	-0.167632
2.913	-0.17308
2.914	-0.174294
2.915	-0.161821
2.916	-0.135401
2.917	-0.093318
2.918	-0.033436
2.919	0.038912
2.92	0.116545
2.921	0.200124
2.922	0.286076
2.923	0.350593
2.924	0.36291
2.925	0.312762
2.926	0.216082
2.927	0.095949
2.928	-0.034484
2.929	-0.167416
2.93	-0.281742
2.931	-0.340072
2.932	-0.319597
2.933	-0.240201
2.934	-0.14662
2.935	-0.071426
2.936	-0.022698
2.937	0.006375
2.938	0.024079
2.939	0.037693
2.94	0.062072
2.941	0.111304
2.942	0.1763
2.943	0.227724
2.944	0.240286
2.945	0.207358
2.946	0.139166
2.947	0.051386
2.948	-0.044857
2.949	-0.141224
2.95	-0.220451
2.951	-0.256618
2.952	-0.241541
2.953	-0.200182
2.954	-0.162744
2.955	-0.128536
2.956	-0.061422
2.957	0.079718
2.958	0.288364
2.959	0.480843
2.96	0.54451
2.961	0.439574
2.962	0.247611
2.963	0.099404
2.964	0.054873
2.965	0.070869
2.966	0.073785
2.967	0.029763
2.968	-0.051348
2.969	-0.143091
2.97	-0.21533
2.971	-0.241492
2.972	-0.217976
2.973	-0.168598
2.974	-0.120459
2.975	-0.085807
2.976	-0.06423
2.977	-0.050675
2.978	-0.041779
2.979	-0.033863
2.98	-0.017017
2.981	0.016341
2.982	0.057281
2.983	0.085542
2.984	0.086151
2.985	0.057727
2.986	0.011416
2.987	-0.037266
2.988	-0.08039
2.989	-0.118319
2.99	-0.146624
2.991	-0.155012
2.992	-0.142603
2.993	-0.120413
2.994	-0.098851
2.995	-0.081203
2.996	-0.065725
2.997	-0.050362
2.998	-0.035602
2.999	-0.020307
3.0	0.002354
3.001	0.036688
3.002	0.07373
3.003	0.094953
3.004	0.086179
3.005	0.047597
3.006	-0.006976
3.007	-0.058686
3.008	-0.093585
3.009	-0.107234
3.01	-0.102991
3.011	-0.091013
3.012	-0.083188
3.013	-0.082462
3.014	-0.083643
3.015	-0.082768
3.016	-0.078823
3.017	-0.071074
3.018	-0.058559
3.019	-0.039483
3.02	-0.010405
3.021	0.028633
3.022	0.066184
3.023	0.083517
3.024	0.069395
3.025	0.028427
3.026	-0.022502
3.027	-0.064744
3.028	-0.087656
3.029	-0.088994
3.03	-0.072982
3.031	-0.05337
3.032	-0.045518
3.033	-0.05103
3.034	-0.06048
3.035	-0.066711
3.036	-0.068357
3.037	-0.065765
3.038	-0.057255
3.039	-0.038384
3.04	-0.004547
3.041	0.040129
3.042	0.075192
3.043	0.077094
3.044	0.042139
3.045	-0.011994
3.046	-0.06204
3.047	-0.09126
3.048	-0.092882
3.049	-0.067934
3.05	-0.027031
3.051	0.007648
3.052	0.018613
3.053	0.009773
3.054	-0.005226
3.055	-0.021509
3.056	-0.040791
3.057	-0.059862
3.058	-0.069495
3.059	-0.06309
3.06	-0.04145
3.061	-0.0094
3.062	0.029255
3.063	0.068624
3.064	0.095959
3.065	0.103591
3.066	0.096932
3.067	0.075652
3.068	0.023416
3.069	-0.066862
3.07	-0.165416
3.071	-0.218014
3.072	-0.194147
3.073	-0.116089
3.074	-0.032802
3.075	0.021716
3.076	0.039153
3.077	0.025113
3.078	-0.013388
3.079	-0.066076
3.08	-0.104236
3.081	-0.093645
3.082	-0.037801
3.083	0.018072
3.084	0.034848
3.085	0.015082
3.086	-0.007739
3.087	-0.002011
3.088	0.044577
3.089	0.124371
3.09	0.204311
3.091	0.227824
3.092	0.156453
3.093	0.024496
3.094	-0.077578
3.095	-0.093512
3.096	-0.049052
3.097	-0.004877
3.098	0.002237
3.099	-0.026615
3.1	-0.060412
3.101	-0.063417
3.102	-0.030498
3.103	0.011674
3.104	0.037945
3.105	0.045453
3.106	0.041083
3.107	0.020297
3.108	-0.029471
3.109	-0.106236
3.11	-0.180895
3.111	-0.211662
3.112	-0.181141
3.113	-0.115549
3.114	-0.057058
3.115	-0.027511
3.116	-0.022515
3.117	-0.02745
3.118	-0.035601
3.119	-0.048568
3.12	-0.059545
3.121	-0.053631
3.122	-0.028638
3.123	0.001011
3.124	0.022684
3.125	0.035766
3.126	0.040532
3.127	0.027481
3.128	-0.01262
3.129	-0.07248
3.13	-0.124824
3.131	-0.137553
3.132	-0.103418
3.133	-0.049006
3.134	-0.006489
3.135	0.01174
3.136	0.012817
3.137	0.009584
3.138	0.00566
3.139	-0.002522
3.14	-0.0103
3.141	-0.006992
3.142	0.007289
3.143	0.021374
3.144	0.027134
3.145	0.02378
3.146	0.011057
3.147	-0.012083
3.148	-0.042825
3.149	-0.073811
3.15	-0.092858
3.151	-0.087467
3.152	-0.059426
3.153	-0.026309
3.154	-0.003778
3.155	0.005535
3.156	0.008337
3.157	0.009977
3.158	0.007004
3.159	-0.004594
3.16	-0.016445
3.161	-0.014871
3.162	0.000812
3.163	0.018033
3.164	0.026758
3.165	0.026113
3.166	0.017839
3.167	0.002855
3.168	-0.016556
3.169	-0.035014
3.17	-0.043736
3.171	-0.037283
3.172	-0.020862
3.173	-0.004873
3.174	0.004683
3.175	0.010076
3.176	0.017667
3.177	0.027178
3.178	0.030762
3.179	0.026929
3.18	0.027533
3.181	0.04472
3.182	0.075291
3.183	0.103333
3.184	0.113217
3.185	0.097092
3.186	0.060342
3.187	0.022092
3.188	-0.000164
3.189	-0.004209
3.19	0.001899
3.191	0.00784
3.192	0.006028
3.193	-0.002662
3.194	-0.011298
3.195	-0.014471
3.196	-0.012595
3.197	-0.011868
3.198	-0.016971
3.199	-0.022838
3.2	-0.017845
3.201	0.002087
3.202	0.025157
3.203	0.034974
3.204	0.024845
3.205	-0.002115
3.206	-0.033454
3.207	-0.049121
3.208	-0.037112
3.209	-0.004877
3.21	0.026423
3.211	0.034556
3.212	0.010689
3.213	-0.035448
3.214	-0.085122
3.215	-0.115814
3.216	-0.097651
3.217	0.000161
3.218	0.181258
3.219	0.386643
3.22	0.502548
3.221	0.443147
3.222	0.239357
3.223	0.021688
3.224	-0.100049
3.225	-0.119946
3.226	-0.095134
3.227	-0.066562
3.228	-0.040871
3.229	-0.014091
3.23	0.008993
3.231	0.01354
3.232	-0.006552
3.233	-0.036931
3.234	-0.059152
3.235	-0.069126
3.236	-0.075279
3.237	-0.08438
3.238	-0.090897
3.239	-0.079786
3.24	-0.041741
3.241	0.009406
3.242	0.04152
3.243	0.033989
3.244	-0.00778
3.245	-0.063296
3.246	-0.107905
3.247	-0.124008
3.248	-0.110559
3.249	-0.078249
3.25	-0.044577
3.251	-0.030978
3.252	-0.045867
3.253	-0.075001
3.254	-0.098589
3.255	-0.109634
3.256	-0.112204
3.257	-0.107866
3.258	-0.089456
3.259	-0.048785
3.26	0.010691
3.261	0.066479
3.262	0.091749
3.263	0.084386
3.264	0.06759
3.265	0.060763
3.266	0.061263
3.267	0.048171
3.268	-0.001864
3.269	-0.090803
3.27	-0.183744
3.271	-0.227557
3.272	-0.197937
3.273	-0.121444
3.274	-0.043868
3.275	0.007614
3.276	0.028478
3.277	0.023254
3.278	-0.004603
3.279	-0.047371
3.28	-0.079728
3.281	-0.072424
3.282	-0.025756
3.283	0.028266
3.284	0.058714
3.285	0.060589
3.286	0.044677
3.287	0.011631
3.288	-0.048637
3.289	-0.132396
3.29	-0.207746
3.291	-0.232818
3.292	-0.195589
3.293	-0.126304
3.294	-0.06413
3.295	-0.026992
3.296	-0.01229
3.297	-0.01173
3.298	-0.02381
3.299	-0.047495
3.3	-0.064857
3.301	-0.050645
3.302	-0.005024
3.303	0.041247
3.304	0.060184
3.305	0.052017
3.306	0.030799
3.307	-0.001708
3.308	-0.05437
3.309	-0.124112
3.31	-0.182846
3.311	-0.194083
3.312	-0.148802
3.313	-0.075072
3.314	-0.009287
3.315	0.02967
3.316	0.041964
3.317	0.0348
3.318	0.012076
3.319	-0.02001
3.32	-0.042489
3.321	-0.036002
3.322	-0.00504
3.323	0.024357
3.324	0.033266
3.325	0.024541
3.326	0.005912
3.327	-0.026431
3.328	-0.078559
3.329	-0.141688
3.33	-0.190211
3.331	-0.200376
3.332	-0.172137
3.333	-0.126824
3.334	-0.086726
3.335	-0.061044
3.336	-0.045482
3.337	-0.0335
3.338	-0.025866
3.339	-0.023214
3.34	-0.01534
3.341	0.009058
3.342	0.043106
3.343	0.06284
3.344	0.048734
3.345	-0.000997
3.346	-0.073993
3.347	-0.14389
3.348	-0.166566
3.349	-0.096103
3.35	0.071968
3.351	0.259879
3.352	0.337638
3.353	0.237351
3.354	0.030723
3.355	-0.136128
3.356	-0.177688
3.357	-0.121932
3.358	-0.046991
3.359	0.001498
3.36	0.029006
3.361	0.055779
3.362	0.08213
3.363	0.090001
3.364	0.066312
3.365	0.014725
3.366	-0.050232
3.367	-0.111987
3.368	-0.158849
3.369	-0.187457
3.37	-0.200755
3.371	-0.203656
3.372	-0.197634
3.373	-0.181366
3.374	-0.158662
3.375	-0.137142
3.376	-0.119388
3.377	-0.102601
3.378	-0.081996
3.379	-0.050446
3.38	-0.002134
3.381	0.055917
3.382	0.099784
3.383	0.106111
3.384	0.07104
3.385	0.007401
3.386	-0.06529
3.387	-0.125895
3.388	-0.160948
3.389	-0.172488
3.39	-0.172869
3.391	-0.171646
3.392	-0.167782
3.393	-0.156523
3.394	-0.140141
3.395	-0.124572
3.396	-0.110049
3.397	-0.090531
3.398	-0.058117
3.399	-0.006464
3.4	0.063831
3.401	0.13615
3.402	0.180281
3.403	0.175009
3.404	0.122417
3.405	0.039262
3.406	-0.051549
3.407	-0.126402
3.408	-0.171267
3.409	-0.185292
3.41	-0.178235
3.411	-0.165116
3.412	-0.154142
3.413	-0.144115
3.414	-0.134542
3.415	-0.126798
3.416	-0.117046
3.417	-0.09439
3.418	-0.046175
3.419	0.033031
3.42	0.131978
3.421	0.218766
3.422	0.257617
3.423	0.235988
3.424	0.164959
3.425	0.061628
3.426	-0.053935
3.427	-0.156709
3.428	-0.224049
3.429	-0.244093
3.43	-0.223126
3.431	-0.184193
3.432	-0.148953
3.433	-0.126019
3.434	-0.117079
3.435	-0.119816
3.436	-0.122395
3.437	-0.102762
3.438	-0.039449
3.439	0.071874
3.44	0.205983
3.441	0.312335
3.442	0.348184
3.443	0.310636
3.444	0.22598
3.445	0.122927
3.446	0.024507
3.447	-0.061858
3.448	-0.154471
3.449	-0.267479
3.45	-0.365895
3.451	-0.385811
3.452	-0.30934
3.453	-0.188549
3.454	-0.088906
3.455	-0.03596
3.456	-0.016144
3.457	-0.005217
3.458	0.009568
3.459	0.032106
3.46	0.073079
3.461	0.142893
3.462	0.228736
3.463	0.294006
3.464	0.302107
3.465	0.240503
3.466	0.123612
3.467	-0.026821
3.468	-0.192722
3.469	-0.34482
3.47	-0.432342
3.471	-0.412965
3.472	-0.301108
3.473	-0.165605
3.474	-0.07136
3.475	-0.037863
3.476	-0.045933
3.477	-0.064798
3.478	-0.069572
3.479	-0.032219
3.48	0.091323
3.481	0.329625
3.482	0.630985
3.483	0.848422
3.484	0.832193
3.485	0.564023
3.486	0.18034
3.487	-0.153902
3.488	-0.366248
3.489	-0.466054
3.49	-0.471057
3.491	-0.391725
3.492	-0.263435
3.493	-0.145259
3.494	-0.080383
3.495	-0.070517
3.496	-0.084062
3.497	-0.084626
3.498	-0.055052
3.499	0.004823
3.5	0.093093
3.501	0.203044
3.502	0.308866
3.503	0.368293
3.504	0.346634
3.505	0.237938
3.506	0.063304
3.507	-0.142042
3.508	-0.33418
3.509	-0.46312
3.51	-0.489383
3.511	-0.413987
3.512	-0.286694
3.513	-0.172209
3.514	-0.110092
3.515	-0.100386
3.516	-0.112961
3.517	-0.11226
3.518	-0.077817
3.519	-0.00179
3.52	0.120269
3.521	0.278511
3.522	0.430517
3.523	0.512518
3.524	0.479291
3.525	0.329975
3.526	0.100228
3.527	-0.15483
3.528	-0.370685
3.529	-0.488446
3.53	-0.482133
3.531	-0.377707
3.532	-0.237303
3.533	-0.122013
3.534	-0.066721
3.535	-0.071262
3.536	-0.104431
3.537	-0.123535
3.538	-0.094933
3.539	-0.000644
3.54	0.160414
3.541	0.362484
3.542	0.544961
3.543	0.633196
3.544	0.580028
3.545	0.388494
3.546	0.106166
3.547	-0.192853
3.548	-0.430338
3.549	-0.546935
3.55	-0.525014
3.551	-0.399686
3.552	-0.239333
3.553	-0.110348
3.554	-0.052775
3.555	-0.06868
3.556	-0.124034
3.557	-0.166636
3.558	-0.147764
3.559	-0.036417
3.56	0.169703
3.561	0.429819
3.562	0.658693
3.563	0.762223
3.564	0.68834
3.565	0.447855
3.566	0.102066
3.567	-0.258883
3.568	-0.537861
3.569	-0.660537
3.57	-0.611679
3.571	-0.444364
3.572	-0.244312
3.573	-0.087757
3.574	-0.020282
3.575	-0.045133
3.576	-0.121237
3.577	-0.180421
3.578	-0.156882
3.579	-0.013287
3.58	0.242514
3.581	0.548565
3.582	0.802973
3.583	0.907976
3.584	0.810839
3.585	0.519288
3.586	0.100643
3.587	-0.333185
3.588	-0.658884
3.589	-0.78905
3.59	-0.715125
3.591	-0.508595
3.592	-0.273863
3.593	-0.10028
3.594	-0.039819
3.595	-0.095211
3.596	-0.21589
3.597	-0.313878
3.598	-0.299505
3.599	-0.120319
3.6	0.210686
3.601	0.606002
3.602	0.932666
3.603	1.071395
3.604	0.961221
3.605	0.613716
3.606	0.110673
3.607	-0.414218
3.608	-0.815439
3.609	-0.988981
3.61	-0.911134
3.611	-0.632274
3.612	-0.239864
3.613	0.157606
3.614	0.425076
3.615	0.437304
3.616	0.179348
3.617	-0.184808
3.618	-0.392657
3.619	-0.26902
3.62	0.156571
3.621	0.692845
3.622	1.120263
3.623	1.290613
3.624	1.148369
3.625	0.720136
3.626	0.109274
3.627	-0.519066
3.628	-0.982943
3.629	-1.152859
3.63	-1.013377
3.631	-0.669653
3.632	-0.287861
3.633	-0.019554
3.634	0.04801
3.635	-0.083755
3.636	-0.323646
3.637	-0.523248
3.638	-0.537044
3.639	-0.285625
3.64	0.198173
3.641	0.769338
3.642	1.234613
3.643	1.434386
3.644	1.286726
3.645	0.801574
3.646	0.090996
3.647	-0.643421
3.648	-1.174975
3.649	-1.348054
3.65	-1.151384
3.651	-0.719696
3.652	-0.257162
3.653	0.062814
3.654	0.163249
3.655	0.081018
3.656	-0.078064
3.657	-0.269173
3.658	-0.664803
3.659	-1.637859
3.66	-3.393166
3.661	-5.531991
3.662	-7.197672
3.663	-7.724772
3.664	-6.955621
3.665	-5.054411
3.666	-2.32623
3.667	0.783185
3.668	3.625969
3.669	5.42297
3.67	5.670649
3.671	4.616066
3.672	3.124395
3.673	1.945194
3.674	1.246649
3.675	0.820259
3.676	0.479837
3.677	0.218868
3.678	0.14533
3.679	0.363872
3.68	0.888374
3.681	1.599071
3.682	2.261002
3.683	2.607616
3.684	2.451126
3.685	1.766533
3.686	0.713936
3.687	-0.413441
3.688	-1.298047
3.689	-1.713256
3.69	-1.600226
3.691	-1.087957
3.692	-0.43665
3.693	0.086638
3.694	0.330479
3.695	0.310045
3.696	0.150876
3.697	-0.070978
3.698	-0.502749
3.699	-1.495271
3.7	-3.226075
3.701	-5.27375
3.702	-6.788829
3.703	-7.157414
3.704	-6.300658
3.705	-4.440734
3.706	-1.883224
3.707	0.97872
3.708	3.577835
3.709	5.209097
3.71	5.401126
3.711	4.381905
3.712	2.968419
3.713	1.863886
3.714	1.211085
3.715	0.798775
3.716	0.454865
3.717	0.200161
3.718	0.175232
3.719	0.503539
3.72	1.187487
3.721	2.064886
3.722	2.841679
3.723	3.202426
3.724	2.946034
3.725	2.075238
3.726	0.805179
3.727	-0.513243
3.728	-1.523622
3.729	-1.988174
3.73	-1.865606
3.731	-1.31522
3.732	-0.615981
3.733	-0.042244
3.734	0.246046
3.735	0.256159
3.736	0.116055
3.737	-0.082218
3.738	-0.469132
3.739	-1.402247
3.74	-3.096376
3.741	-5.163221
3.742	-6.716957
3.743	-7.033718
3.744	-5.985026
3.745	-3.910912
3.746	-1.302477
3.747	1.366809
3.748	3.616251
3.749	4.924135
3.75	4.960888
3.751	3.967157
3.752	2.675711
3.753	1.69908
3.754	1.134035
3.755	0.762884
3.756	0.430346
3.757	0.188036
3.758	0.207123
3.759	0.624606
3.76	1.428501
3.761	2.415477
3.762	3.246756
3.763	3.586431
3.764	3.241543
3.765	2.240123
3.766	0.826446
3.767	-0.623664
3.768	-1.730776
3.769	-2.240582
3.77	-2.115855
3.771	-1.536795
3.772	-0.800694
3.773	-0.189985
3.774	0.13227
3.775	0.172142
3.776	0.061356
3.777	-0.099602
3.778	-0.436835
3.779	-1.312434
3.78	-2.951106
3.781	-4.978826
3.782	-6.528225
3.783	-6.899299
3.784	-5.991124
3.785	-4.130962
3.786	-1.706138
3.787	0.94014
3.788	3.338964
3.789	4.835836
3.79	4.964053
3.791	3.946657
3.792	2.592306
3.793	1.581728
3.794	1.02379
3.795	0.682394
3.796	0.392522
3.797	0.2119
3.798	0.316435
3.799	0.829162
3.8	1.703163
3.801	2.703934
3.802	3.494604
3.803	3.768555
3.804	3.361881
3.805	2.313856
3.806	0.862417
3.807	-0.62398
3.808	-1.761853
3.809	-2.289735
3.81	-2.171363
3.811	-1.594867
3.812	-0.864678
3.813	-0.261651
3.814	0.06141
3.815	0.120833
3.816	0.052085
3.817	-0.050863
3.818	-0.331214
3.819	-1.16989
3.82	-2.8019
3.821	-4.851383
3.822	-6.43526
3.823	-6.830836
3.824	-5.928175
3.825	-4.063309
3.826	-1.632526
3.827	1.012836
3.828	3.390125
3.829	4.839896
3.83	4.909415
3.831	3.841131
3.832	2.455124
3.833	1.437251
3.834	0.901558
3.835	0.616254
3.836	0.409272
3.837	0.311287
3.838	0.458875
3.839	0.947343
3.84	1.742086
3.841	2.665001
3.842	3.434354
3.843	3.748218
3.844	3.406801
3.845	2.415305
3.846	0.997101
3.847	-0.48597
3.848	-1.664888
3.849	-2.287263
3.85	-2.285997
3.851	-1.79169
3.852	-1.079802
3.853	-0.441876
3.854	-0.048227
3.855	0.106571
3.856	0.137806
3.857	0.099236
3.858	-0.194454
3.859	-1.130031
3.86	-2.890165
3.861	-5.020962
3.862	-6.598767
3.863	-6.9179
3.864	-5.907559
3.865	-3.932818
3.866	-1.417583
3.867	1.243938
3.868	3.534346
3.869	4.817731
3.87	4.743302
3.871	3.673616
3.872	2.453956
3.873	1.658444
3.874	1.244482
3.875	0.914749
3.876	0.569029
3.877	0.361328
3.878	0.483458
3.879	0.995135
3.88	1.80322
3.881	2.699564
3.882	3.404948
3.883	3.647306
3.884	3.266451
3.885	2.288691
3.886	0.933576
3.887	-0.458
3.888	-1.548819
3.889	-2.119985
3.89	-2.132559
3.891	-1.724386
3.892	-1.137288
3.893	-0.602705
3.894	-0.243637
3.895	-0.043082
3.896	0.089955
3.897	0.163885
3.898	-0.053122
3.899	-0.981444
3.9	-2.813507
3.901	-5.071832
3.902	-6.780293
3.903	-7.174693
3.904	-6.147171
3.905	-4.064674
3.906	-1.388558
3.907	1.436877
3.908	3.847758
3.909	5.161233
3.91	4.982763
3.911	3.664802
3.912	2.112629
3.913	1.039079
3.914	0.560313
3.915	0.435754
3.916	0.449872
3.917	0.55543
3.918	0.813274
3.919	1.282558
3.92	1.940768
3.921	2.648231
3.922	3.178123
3.923	3.309228
3.924	2.921851
3.925	2.051955
3.926	0.887542
3.927	-0.298954
3.928	-1.24593
3.929	-1.781444
3.93	-1.87195
3.931	-1.61877
3.932	-1.196573
3.933	-0.776916
3.934	-0.470178
3.935	-0.294656
3.936	-0.183559
3.937	-0.027321
3.938	0.272106
3.939	0.758714
3.94	1.392627
3.941	2.036233
3.942	2.49087
3.943	2.582451
3.944	2.236599
3.945	1.507003
3.946	0.553728
3.947	-0.414636
3.948	-1.197663
3.949	-1.650297
3.95	-1.733209
3.951	-1.526656
3.952	-1.177357
3.953	-0.825843
3.954	-0.559484
3.955	-0.391902
3.956	-0.267519
3.957	-0.09455
3.958	0.206699
3.959	0.663514
3.96	1.22564
3.961	1.764948
3.962	2.119185
3.963	2.160311
3.964	1.844576
3.965	1.226139
3.966	0.434564
3.967	-0.365742
3.968	-1.012289
3.969	-1.386827
3.97	-1.46332
3.971	-1.313864
3.972	-1.056221
3.973	-0.793822
3.974	-0.585279
3.975	-0.436278
3.976	-0.303844
3.977	-0.118935
3.978	0.175127
3.979	0.587923
3.98	1.065165
3.981	1.50432
3.982	1.795425
3.983	1.849497
3.984	1.619738
3.985	1.129066
3.986	0.466968
3.987	-0.244321
3.988	-0.876453
3.989	-1.314264
3.99	-1.481864
3.991	-1.37869
3.992	-1.096088
3.993	-0.768955
3.994	-0.495484
3.995	-0.300617
3.996	-0.152951
3.997	-0.003802
3.998	0.181712
3.999	0.422865
4.0	0.728727
4.001	1.079081
4.002	1.40802
4.003	1.625351
4.004	1.648988
4.005	1.413458
4.006	0.889184
4.007	0.14829
4.008	-0.607429
4.009	-1.14369
4.01	-1.334766
4.011	-1.219546
4.012	-0.945473
4.013	-0.659713
4.014	-0.437709
4.015	-0.28194
4.016	-0.155037
4.017	-0.015746
4.018	0.161364
4.019	0.39019
4.02	0.672276
4.021	0.970632
4.022	1.197858
4.023	1.255483
4.024	1.093959
4.025	0.737301
4.026	0.261345
4.027	-0.239701
4.028	-0.675471
4.029	-0.972619
4.03	-1.087271
4.031	-1.025772
4.032	-0.850275
4.033	-0.642642
4.034	-0.458759
4.035	-0.311441
4.036	-0.181482
4.037	-0.04249
4.038	0.122751
4.039	0.32539
4.04	0.568403
4.041	0.822181
4.042	1.013231
4.043	1.059788
4.044	0.922748
4.045	0.622877
4.046	0.224844
4.047	-0.1882
4.048	-0.539934
4.049	-0.776881
4.05	-0.87284
4.051	-0.835129
4.052	-0.706685
4.053	-0.546164
4.054	-0.397096
4.055	-0.271228
4.056	-0.155466
4.057	-0.031484
4.058	0.113627
4.059	0.291359
4.06	0.507101
4.061	0.733481
4.062	0.899448
4.063	0.929583
4.064	0.794602
4.065	0.521716
4.066	0.174331
4.067	-0.173945
4.068	-0.462658
4.069	-0.654582
4.07	-0.734494
4.071	-0.710282
4.072	-0.613276
4.073	-0.486535
4.074	-0.363838
4.075	-0.255561
4.076	-0.152761
4.077	-0.041373
4.078	0.089609
4.079	0.249377
4.08	0.43917
4.081	0.630722
4.082	0.762974
4.083	0.77749
4.084	0.654176
4.085	0.418688
4.086	0.129494
4.087	-0.150151
4.088	-0.377981
4.089	-0.53302
4.09	-0.604561
4.091	-0.593314
4.092	-0.518246
4.093	-0.412881
4.094	-0.308119
4.095	-0.215983
4.096	-0.128908
4.097	-0.030184
4.098	0.096424
4.099	0.261647
4.1	0.458556
4.101	0.643415
4.102	0.747652
4.103	0.724508
4.104	0.575981
4.105	0.344096
4.106	0.088149
4.107	-0.143669
4.108	-0.328643
4.109	-0.457149
4.11	-0.519984
4.111	-0.514335
4.112	-0.454023
4.113	-0.367453
4.114	-0.28226
4.115	-0.209987
4.116	-0.142772
4.117	-0.061421
4.118	0.052002
4.119	0.20369
4.12	0.376194
4.121	0.522418
4.122	0.590063
4.123	0.557427
4.124	0.438013
4.125	0.263531
4.126	0.069432
4.127	-0.115689
4.128	-0.270705
4.129	-0.378066
4.13	-0.431181
4.131	-0.440178
4.132	-0.42209
4.133	-0.383561
4.134	-0.307125
4.135	-0.158005
4.136	0.078298
4.137	0.351185
4.138	0.551867
4.139	0.601397
4.14	0.531103
4.141	0.444184
4.142	0.404099
4.143	0.387121
4.144	0.334352
4.145	0.218869
4.146	0.058141
4.147	-0.11139
4.148	-0.25322
4.149	-0.339657
4.15	-0.363365
4.151	-0.339851
4.152	-0.293981
4.153	-0.246189
4.154	-0.207185
4.155	-0.176263
4.156	-0.140083
4.157	-0.078237
4.158	0.023489
4.159	0.161024
4.16	0.3037
4.161	0.40314
4.162	0.425923
4.163	0.37337
4.164	0.268911
4.165	0.138707
4.166	0.001972
4.167	-0.127203
4.168	-0.229924
4.169	-0.284358
4.17	-0.286487
4.171	-0.259211
4.172	-0.230559
4.173	-0.211305
4.174	-0.197719
4.175	-0.18066
4.176	-0.14604
4.177	-0.079409
4.178	0.02378
4.179	0.151932
4.18	0.274739
4.181	0.353439
4.182	0.368638
4.183	0.336056
4.184	0.287441
4.185	0.235274
4.186	0.160961
4.187	0.0412
4.188	-0.119276
4.189	-0.276714
4.19	-0.366531
4.191	-0.35347
4.192	-0.265606
4.193	-0.162212
4.194	-0.081549
4.195	-0.027756
4.196	0.010325
4.197	0.036007
4.198	0.043109
4.199	0.041342
4.2	0.064943
4.201	0.13479
4.202	0.225242
4.203	0.286851
4.204	0.291699
4.205	0.243918
4.206	0.15627
4.207	0.036189
4.208	-0.102806
4.209	-0.227622
4.21	-0.294679
4.211	-0.283767
4.212	-0.218764
4.213	-0.143405
4.214	-0.084021
4.215	-0.040499
4.216	-0.003923
4.217	0.023339
4.218	0.031245
4.219	0.028568
4.22	0.048572
4.221	0.110933
4.222	0.190948
4.223	0.243222
4.224	0.244068
4.225	0.198907
4.226	0.121967
4.227	0.024048
4.228	-0.081375
4.229	-0.168324
4.23	-0.204956
4.231	-0.178888
4.232	-0.112308
4.233	-0.044496
4.234	-0.001467
4.235	0.015636
4.236	0.018387
4.237	0.013341
4.238	0.000642
4.239	-0.008788
4.24	0.010518
4.241	0.069287
4.242	0.142202
4.243	0.189738
4.244	0.190992
4.245	0.150077
4.246	0.082381
4.247	0.00238
4.248	-0.077656
4.249	-0.143919
4.25	-0.181819
4.251	-0.183474
4.252	-0.155441
4.253	-0.116196
4.254	-0.082082
4.255	-0.056982
4.256	-0.037176
4.257	-0.022168
4.258	-0.014268
4.259	-0.004154
4.26	0.028282
4.261	0.082203
4.262	0.123481
4.263	0.119804
4.264	0.072922
4.265	0.016687
4.266	-0.003577
4.267	0.042068
4.268	0.143022
4.269	0.238163
4.27	0.244462
4.271	0.129175
4.272	-0.042431
4.273	-0.160476
4.274	-0.173205
4.275	-0.115515
4.276	-0.049654
4.277	-0.009543
4.278	0.00498
4.279	0.013581
4.28	0.036654
4.281	0.072619
4.282	0.10018
4.283	0.104809
4.284	0.087854
4.285	0.054436
4.286	0.005585
4.287	-0.057402
4.288	-0.124472
4.289	-0.177262
4.29	-0.199884
4.291	-0.188066
4.292	-0.151528
4.293	-0.109424
4.294	-0.078391
4.295	-0.06221
4.296	-0.052894
4.297	-0.04141
4.298	-0.023752
4.299	0.004552
4.3	0.045037
4.301	0.084363
4.302	0.104179
4.303	0.10032
4.304	0.080108
4.305	0.049086
4.306	0.008498
4.307	-0.037961
4.308	-0.080216
4.309	-0.106954
4.31	-0.113239
4.311	-0.101867
4.312	-0.081107
4.313	-0.06164
4.314	-0.050246
4.315	-0.044685
4.316	-0.036123
4.317	-0.018502
4.318	0.006593
4.319	0.035504
4.32	0.062583
4.321	0.07701
4.322	0.073247
4.323	0.057934
4.324	0.039521
4.325	0.019342
4.326	-0.004394
4.327	-0.029234
4.328	-0.048918
4.329	-0.058603
4.33	-0.057477
4.331	-0.049699
4.332	-0.042717
4.333	-0.041708
4.334	-0.045828
4.335	-0.048421
4.336	-0.041043
4.337	-0.021317
4.338	0.005769
4.339	0.034566
4.34	0.056926
4.341	0.060967
4.342	0.045653
4.343	0.024978
4.344	0.009356
4.345	-0.006278
4.346	-0.031816
4.347	-0.065551
4.348	-0.091856
4.349	-0.093815
4.35	-0.070589
4.351	-0.04255
4.352	-0.031139
4.353	-0.037737
4.354	-0.049428
4.355	-0.053756
4.356	-0.043928
4.357	-0.020531
4.358	0.01164
4.359	0.048898
4.36	0.083549
4.361	0.101684
4.362	0.097866
4.363	0.082407
4.364	0.06569
4.365	0.043528
4.366	0.00689
4.367	-0.036754
4.368	-0.061376
4.369	-0.047463
4.37	-0.009207
4.371	0.015105
4.372	0.005891
4.373	-0.022041
4.374	-0.045773
4.375	-0.053814
4.376	-0.045517
4.377	-0.027488
4.378	-0.005917
4.379	0.018311
4.38	0.039735
4.381	0.044749
4.382	0.028627
4.383	0.003404
4.384	-0.019623
4.385	-0.043861
4.386	-0.074113
4.387	-0.096866
4.388	-0.084867
4.389	-0.02769
4.39	0.041497
4.391	0.069977
4.392	0.040935
4.393	-0.020588
4.394	-0.085894
4.395	-0.136366
4.396	-0.14933
4.397	-0.091317
4.398	0.06542
4.399	0.300836
4.4	0.511661
4.401	0.556296
4.402	0.382479
4.403	0.09798
4.404	-0.122624
4.405	-0.191636
4.406	-0.148632
4.407	-0.082178
4.408	-0.050879
4.409	-0.060155
4.41	-0.079256
4.411	-0.077334
4.412	-0.050161
4.413	-0.014027
4.414	0.017242
4.415	0.039085
4.416	0.044635
4.417	0.018398
4.418	-0.049135
4.419	-0.134707
4.42	-0.18451
4.421	-0.164325
4.422	-0.094331
4.423	-0.020642
4.424	0.02848
4.425	0.051262
4.426	0.052581
4.427	0.029242
4.428	-0.018075
4.429	-0.069923
4.43	-0.099646
4.431	-0.095423
4.432	-0.065896
4.433	-0.028314
4.434	0.005368
4.435	0.03001
4.436	0.039
4.437	0.020462
4.438	-0.031886
4.439	-0.097134
4.44	-0.130311
4.441	-0.106742
4.442	-0.047252
4.443	0.012078
4.444	0.053291
4.445	0.074961
4.446	0.075471
4.447	0.050665
4.448	0.007711
4.449	-0.032581
4.45	-0.052018
4.451	-0.045536
4.452	-0.019522
4.453	0.012943
4.454	0.038902
4.455	0.051054
4.456	0.047235
4.457	0.025642
4.458	-0.013383
4.459	-0.054004
4.46	-0.068813
4.461	-0.048905
4.462	-0.012595
4.463	0.019072
4.464	0.039304
4.465	0.048968
4.466	0.043856
4.467	0.017671
4.468	-0.02302
4.469	-0.058472
4.47	-0.071018
4.471	-0.055895
4.472	-0.022739
4.473	0.011395
4.474	0.03381
4.475	0.041896
4.476	0.040288
4.477	0.032717
4.478	0.019519
4.479	0.007337
4.48	0.006713
4.481	0.015523
4.482	0.022466
4.483	0.024895
4.484	0.030339
4.485	0.04071
4.486	0.042324
4.487	0.021126
4.488	-0.015648
4.489	-0.043687
4.49	-0.042936
4.491	-0.010865
4.492	0.037153
4.493	0.077583
4.494	0.092527
4.495	0.079543
4.496	0.052051
4.497	0.026275
4.498	0.009594
4.499	0.004266
4.5	0.008334
4.501	0.012101
4.502	0.008362
4.503	0.001812
4.504	0.001618
4.505	0.007195
4.506	0.005402
4.507	-0.01258
4.508	-0.037835
4.509	-0.053197
4.51	-0.048659
4.511	-0.027178
4.512	-0.001024
4.513	0.016852
4.514	0.019686
4.515	0.011988
4.516	0.007677
4.517	0.015937
4.518	0.033764
4.519	0.053631
4.52	0.065597
4.521	0.057313
4.522	0.026448
4.523	-0.014688
4.524	-0.053013
4.525	-0.082573
4.526	-0.089945
4.527	-0.041472
4.528	0.088666
4.529	0.26416
4.53	0.376912
4.531	0.329666
4.532	0.144843
4.533	-0.045362
4.534	-0.131954
4.535	-0.112835
4.536	-0.049555
4.537	0.006716
4.538	0.040922
4.539	0.058868
4.54	0.062932
4.541	0.048401
4.542	0.01919
4.543	-0.009496
4.544	-0.028448
4.545	-0.045242
4.546	-0.070511
4.547	-0.098412
4.548	-0.109363
4.549	-0.090696
4.55	-0.05347
4.551	-0.024153
4.552	-0.017047
4.553	-0.026454
4.554	-0.041126
4.555	-0.050958
4.556	-0.047909
4.557	-0.03014
4.558	-0.000183
4.559	0.037326
4.56	0.068927
4.561	0.075345
4.562	0.052075
4.563	0.016707
4.564	-0.012409
4.565	-0.034198
4.566	-0.05269
4.567	-0.060405
4.568	-0.044726
4.569	-0.005492
4.57	0.035345
4.571	0.05041
4.572	0.036194
4.573	0.010296
4.574	-0.011973
4.575	-0.023192
4.576	-0.019612
4.577	-0.000509
4.578	0.033784
4.579	0.080192
4.58	0.122889
4.581	0.135549
4.582	0.107101
4.583	0.055446
4.584	0.005305
4.585	-0.033497
4.586	-0.058371
4.587	-0.061507
4.588	-0.033894
4.589	0.018454
4.59	0.063653
4.591	0.069167
4.592	0.038479
4.593	8.5e-05
4.594	-0.026475
4.595	-0.036339
4.596	-0.028316
4.597	-0.000233
4.598	0.047599
4.599	0.105231
4.6	0.151062
4.601	0.166844
4.602	0.15818
4.603	0.145248
4.604	0.134821
4.605	0.118717
4.606	0.08735
4.607	0.031399
4.608	-0.049138
4.609	-0.12848
4.61	-0.166333
4.611	-0.143114
4.612	-0.077218
4.613	-0.006085
4.614	0.044296
4.615	0.069001
4.616	0.073073
4.617	0.060004
4.618	0.033267
4.619	0.010701
4.62	0.020783
4.621	0.068676
4.622	0.126462
4.623	0.164957
4.624	0.175403
4.625	0.16274
4.626	0.129376
4.627	0.069183
4.628	-0.016146
4.629	-0.100817
4.63	-0.14786
4.631	-0.139013
4.632	-0.088681
4.633	-0.02919
4.634	0.014699
4.635	0.037454
4.636	0.047176
4.637	0.051987
4.638	0.054472
4.639	0.0627
4.64	0.088592
4.641	0.125854
4.642	0.151667
4.643	0.152595
4.644	0.133429
4.645	0.103864
4.646	0.062386
4.647	-0.001909
4.648	-0.086085
4.649	-0.160727
4.65	-0.189822
4.651	-0.161692
4.652	-0.099005
4.653	-0.039072
4.654	-0.006154
4.655	-0.001416
4.656	-0.011114
4.657	-0.020592
4.658	-0.015356
4.659	0.034826
4.66	0.167788
4.661	0.37913
4.662	0.585537
4.663	0.659315
4.664	0.530372
4.665	0.260776
4.666	-0.007266
4.667	-0.174093
4.668	-0.233931
4.669	-0.22785
4.67	-0.187439
4.671	-0.129499
4.672	-0.073271
4.673	-0.038505
4.674	-0.031428
4.675	-0.038622
4.676	-0.03579
4.677	-0.008722
4.678	0.036678
4.679	0.086651
4.68	0.128254
4.681	0.148493
4.682	0.142078
4.683	0.116734
4.684	0.082158
4.685	0.035958
4.686	-0.032687
4.687	-0.12058
4.688	-0.200514
4.689	-0.239971
4.69	-0.225626
4.691	-0.173695
4.692	-0.118014
4.693	-0.084323
4.694	-0.075704
4.695	-0.074627
4.696	-0.056747
4.697	-0.011507
4.698	0.052603
4.699	0.121626
4.7	0.181762
4.701	0.216869
4.702	0.215693
4.703	0.179149
4.704	0.115105
4.705	0.029982
4.706	-0.066954
4.707	-0.153036
4.708	-0.199425
4.709	-0.192949
4.71	-0.148275
4.711	-0.097922
4.712	-0.067595
4.713	-0.062877
4.714	-0.074398
4.715	-0.083529
4.716	-0.069789
4.717	-0.023948
4.718	0.049471
4.719	0.138341
4.72	0.22129
4.721	0.270264
4.722	0.267715
4.723	0.216202
4.724	0.128595
4.725	0.017896
4.726	-0.097468
4.727	-0.188081
4.728	-0.226235
4.729	-0.205852
4.73	-0.150729
4.731	-0.099115
4.732	-0.075277
4.733	-0.080483
4.734	-0.102018
4.735	-0.118805
4.736	-0.108991
4.737	-0.060994
4.738	0.024851
4.739	0.138097
4.74	0.2524
4.741	0.327668
4.742	0.333155
4.743	0.267265
4.744	0.148551
4.745	-0.002092
4.746	-0.156396
4.747	-0.270228
4.748	-0.303687
4.749	-0.254457
4.75	-0.166826
4.751	-0.097308
4.752	-0.071555
4.753	-0.08245
4.754	-0.110431
4.755	-0.130869
4.756	-0.118811
4.757	-0.057983
4.758	0.053959
4.759	0.199966
4.76	0.338639
4.761	0.419661
4.762	0.419934
4.763	0.356988
4.764	0.258017
4.765	0.131669
4.766	-0.019111
4.767	-0.176169
4.768	-0.308242
4.769	-0.37997
4.77	-0.365498
4.771	-0.273998
4.772	-0.156018
4.773	-0.068845
4.774	-0.035831
4.775	-0.041647
4.776	-0.057843
4.777	-0.064886
4.778	-0.05045
4.779	0.005884
4.78	0.122295
4.781	0.275759
4.782	0.400289
4.783	0.435967
4.784	0.363477
4.785	0.203384
4.786	0.000937
4.787	-0.197464
4.788	-0.359555
4.789	-0.459626
4.79	-0.471242
4.791	-0.381696
4.792	-0.205758
4.793	0.021398
4.794	0.246457
4.795	0.387869
4.796	0.368369
4.797	0.198225
4.798	0.006327
4.799	-0.049711
4.8	0.08383
4.801	0.317016
4.802	0.503646
4.803	0.549072
4.804	0.441412
4.805	0.22542
4.806	-0.033075
4.807	-0.274915
4.808	-0.454868
4.809	-0.535032
4.81	-0.495111
4.811	-0.361045
4.812	-0.207636
4.813	-0.111851
4.814	-0.10135
4.815	-0.147201
4.816	-0.19283
4.817	-0.189042
4.818	-0.11183
4.819	0.041672
4.82	0.249697
4.821	0.45414
4.822	0.580319
4.823	0.576305
4.824	0.433164
4.825	0.185024
4.826	-0.105277
4.827	-0.368613
4.828	-0.545138
4.829	-0.593981
4.83	-0.508865
4.831	-0.334388
4.832	-0.155735
4.833	-0.05136
4.834	-0.046612
4.835	-0.107173
4.836	-0.166748
4.837	-0.164622
4.838	-0.069569
4.839	0.117925
4.84	0.364202
4.841	0.600505
4.842	0.744765
4.843	0.736741
4.844	0.561979
4.845	0.258373
4.846	-0.097722
4.847	-0.416179
4.848	-0.615454
4.849	-0.646213
4.85	-0.515707
4.851	-0.295118
4.852	-0.090197
4.853	0.014893
4.854	-0.001421
4.855	-0.095892
4.856	-0.189059
4.857	-0.20662
4.858	-0.106874
4.859	0.113391
4.86	0.412891
4.861	0.704334
4.862	0.883684
4.863	0.875864
4.864	0.663344
4.865	0.290729
4.866	-0.14689
4.867	-0.528325
4.868	-0.74492
4.869	-0.744482
4.87	-0.557335
4.871	-0.285253
4.872	-0.052419
4.873	0.053631
4.874	0.01566
4.875	-0.114202
4.876	-0.24336
4.877	-0.281409
4.878	-0.172175
4.879	0.091229
4.88	0.455947
4.881	0.812621
4.882	1.031716
4.883	1.019392
4.884	0.757278
4.885	0.308077
4.886	-0.204145
4.887	-0.62973
4.888	-0.843942
4.889	-0.798207
4.89	-0.545799
4.891	-0.218091
4.892	0.041225
4.893	0.138533
4.894	0.060129
4.895	-0.129182
4.896	-0.317248
4.897	-0.392142
4.898	-0.279974
4.899	0.03161
4.9	0.477009
4.901	0.919367
4.902	1.196944
4.903	1.190377
4.904	0.872105
4.905	0.317453
4.906	-0.315004
4.907	-0.829937
4.908	-1.068897
4.909	-0.983218
4.91	-0.657998
4.911	-0.260481
4.912	0.047452
4.913	0.166306
4.914	0.07883
4.915	-0.148145
4.916	-0.387691
4.917	-0.500465
4.918	-0.385294
4.919	-0.021889
4.92	0.504354
4.921	1.021043
4.922	1.341591
4.923	1.353534
4.924	1.062774
4.925	0.570878
4.926	0.013944
4.927	-0.486585
4.928	-0.830535
4.929	-0.933125
4.93	-0.763187
4.931	-0.40067
4.932	-0.023909
4.933	0.19382
4.934	0.195933
4.935	0.057294
4.936	-0.133953
4.937	-0.458209
4.938	-1.238011
4.939	-2.785689
4.94	-4.917818
4.941	-6.860912
4.942	-7.80999
4.943	-7.427657
4.944	-5.804339
4.945	-3.240498
4.946	-0.158184
4.947	2.86314
4.948	5.068343
4.949	5.80899
4.95	5.076659
4.951	3.616391
4.952	2.29538
4.953	1.463745
4.954	0.981074
4.955	0.618114
4.956	0.305689
4.957	0.125875
4.958	0.199388
4.959	0.591911
4.96	1.250764
4.961	1.976088
4.962	2.47988
4.963	2.521036
4.964	2.020499
4.965	1.092475
4.966	-0.006183
4.967	-0.971935
4.968	-1.554017
4.969	-1.630679
4.97	-1.249085
4.971	-0.614417
4.972	-0.007432
4.973	0.352525
4.974	0.412844
4.975	0.276516
4.976	0.064296
4.977	-0.281912
4.978	-1.077214
4.979	-2.619815
4.98	-4.693032
4.981	-6.506955
4.982	-7.293907
4.983	-6.7932
4.984	-5.168418
4.985	-2.745928
4.986	0.094847
4.987	2.858378
4.988	4.865625
4.989	5.50928
4.99	4.782956
4.991	3.400381
4.992	2.18015
4.993	1.42777
4.994	0.979431
4.995	0.615441
4.996	0.306285
4.997	0.178817
4.998	0.371991
4.999	0.92507
5.0	1.725304
5.001	2.521829
5.002	3.016696
5.003	2.984567
5.004	2.358747
5.005	1.260498
5.006	-0.033795
5.007	-1.179514
5.008	-1.879692
5.009	-1.989373
5.01	-1.567124
5.011	-0.853088
5.012	-0.166021
5.013	0.2503
5.014	0.338668
5.015	0.216135
5.016	0.02693
5.017	-0.270345
5.018	-0.989393
5.019	-2.439154
5.02	-4.420748
5.021	-6.164191
5.022	-6.920016
5.023	-6.442728
5.024	-4.900569
5.025	-2.603412
5.026	0.09924
5.027	2.734426
5.028	4.636764
5.029	5.215237
5.03	4.476097
5.031	3.127799
5.032	1.965764
5.033	1.267572
5.034	0.855383
5.035	0.518237
5.036	0.246744
5.037	0.182842
5.038	0.465977
5.039	1.11644
5.04	1.990857
5.041	2.814773
5.042	3.284535
5.043	3.18478
5.044	2.464716
5.045	1.261827
5.046	-0.126975
5.047	-1.334662
5.048	-2.054351
5.049	-2.15563
5.05	-1.731554
5.051	-1.046004
5.052	-0.397555
5.053	0.027375
5.054	0.22599
5.055	0.321905
5.056	0.384477
5.057	0.23593
5.058	-0.537886
5.059	-2.220447
5.06	-4.488456
5.061	-6.437446
5.062	-7.225928
5.063	-6.618101
5.064	-4.90471
5.065	-2.509804
5.066	0.195524
5.067	2.770826
5.068	4.59204
5.069	5.099443
5.07	4.312239
5.071	2.939894
5.072	1.775347
5.073	1.093998
5.074	0.716939
5.075	0.428696
5.076	0.209385
5.077	0.191666
5.078	0.512315
5.079	1.191025
5.08	2.081452
5.081	2.905586
5.082	3.359436
5.083	3.232134
5.084	2.481078
5.085	1.25415
5.086	-0.143467
5.087	-1.345799
5.088	-2.05665
5.089	-2.160101
5.09	-1.758056
5.091	-1.104916
5.092	-0.480608
5.093	-0.076835
5.094	0.067508
5.095	0.051636
5.096	-0.013552
5.097	-0.20066
5.098	-0.85086
5.099	-2.307221
5.1	-4.400063
5.101	-6.319092
5.102	-7.176529
5.103	-6.628776
5.104	-4.912878
5.105	-2.474036
5.106	0.272913
5.107	2.863102
5.108	4.667694
5.109	5.12745
5.11	4.268867
5.111	2.822083
5.112	1.60813
5.113	0.925413
5.114	0.600768
5.115	0.402644
5.116	0.283562
5.117	0.351006
5.118	0.72271
5.119	1.404944
5.12	2.248765
5.121	2.991368
5.122	3.359869
5.123	3.176598
5.124	2.419094
5.125	1.234599
5.126	-0.09354
5.127	-1.232493
5.128	-1.915948
5.129	-2.046727
5.13	-1.725351
5.131	-1.176361
5.132	-0.634006
5.133	-0.254616
5.134	-0.067324
5.135	0.011473
5.136	0.059671
5.137	-0.03681
5.138	-0.657795
5.139	-2.163956
5.14	-4.367107
5.141	-6.408279
5.142	-7.346029
5.143	-6.803616
5.144	-5.018262
5.145	-2.462823
5.146	0.410009
5.147	3.096047
5.148	4.929258
5.149	5.333663
5.15	4.357025
5.151	2.778583
5.152	1.470418
5.153	0.763305
5.154	0.487945
5.155	0.392478
5.156	0.396079
5.157	0.566478
5.158	0.981834
5.159	1.618945
5.16	2.323296
5.161	2.870758
5.162	3.069704
5.163	2.822528
5.164	2.137197
5.165	1.123234
5.166	-0.023018
5.167	-1.057982
5.168	-1.762351
5.169	-2.01862
5.17	-1.848263
5.171	-1.396904
5.172	-0.875615
5.173	-0.466439
5.174	-0.241584
5.175	-0.150912
5.176	-0.0737
5.177	0.108117
5.178	0.459452
5.179	0.974134
5.18	1.566431
5.181	2.079384
5.182	2.335308
5.183	2.207953
5.184	1.676866
5.185	0.844596
5.186	-0.08657
5.187	-0.8768
5.188	-1.344996
5.189	-1.454118
5.19	-1.313238
5.191	-1.083039
5.192	-0.864383
5.193	-0.673887
5.194	-0.501857
5.195	-0.344061
5.196	-0.177767
5.197	0.046689
5.198	0.375186
5.199	0.812855
5.2	1.298806
5.201	1.709459
5.202	1.905626
5.203	1.794944
5.204	1.364656
5.205	0.679993
5.206	-0.128338
5.207	-0.888637
5.208	-1.438491
5.209	-1.678885
5.21	-1.605798
5.211	-1.31321
5.212	-0.951444
5.213	-0.649962
5.214	-0.458314
5.215	-0.340751
5.216	-0.217455
5.217	-0.018532
5.218	0.285607
5.219	0.678612
5.22	1.09678
5.221	1.437156
5.222	1.591747
5.223	1.491477
5.224	1.128203
5.225	0.555383
5.226	-0.115913
5.227	-0.739386
5.228	-1.183172
5.229	-1.374868
5.23	-1.321173
5.231	-1.100626
5.232	-0.824917
5.233	-0.586337
5.234	-0.42052
5.235	-0.301401
5.236	-0.170854
5.237	0.020902
5.238	0.293661
5.239	0.632923
5.24	0.985962
5.241	1.265228
5.242	1.379062
5.243	1.273469
5.244	0.948358
5.245	0.453909
5.246	-0.11293
5.247	-0.629354
5.248	-0.990438
5.249	-1.145009
5.25	-1.10687
5.251	-0.940743
5.252	-0.729374
5.253	-0.539365
5.254	-0.396524
5.255	-0.281592
5.256	-0.152849
5.257	0.024718
5.258	0.264626
5.259	0.554223
5.26	0.849823
5.261	1.079651
5.262	1.169346
5.263	1.074591
5.264	0.794573
5.265	0.373534
5.266	-0.102716
5.267	-0.52994
5.268	-0.823295
5.269	-0.948025
5.27	-0.925168
5.271	-0.807759
5.272	-0.652382
5.273	-0.503816
5.274	-0.381672
5.275	-0.274049
5.276	-0.151196
5.277	0.013332
5.278	0.229608
5.279	0.485994
5.28	0.743391
5.281	0.937546
5.282	1.00732
5.283	0.924305
5.284	0.694503
5.285	0.354467
5.286	-0.030654
5.287	-0.385011
5.288	-0.645483
5.289	-0.780212
5.29	-0.796862
5.291	-0.729352
5.292	-0.618536
5.293	-0.500946
5.294	-0.395425
5.295	-0.294411
5.296	-0.173047
5.297	-0.008204
5.298	0.205721
5.299	0.448806
5.3	0.673253
5.301	0.817061
5.302	0.837548
5.303	0.728092
5.304	0.505772
5.305	0.204713
5.306	-0.122832
5.307	-0.414759
5.308	-0.614921
5.309	-0.698257
5.31	-0.683936
5.311	-0.612285
5.312	-0.518181
5.313	-0.426759
5.314	-0.351371
5.315	-0.28719
5.316	-0.210503
5.317	-0.085074
5.318	0.12587
5.319	0.436518
5.32	0.802638
5.321	1.106521
5.322	1.202147
5.323	1.008652
5.324	0.58589
5.325	0.105667
5.326	-0.275575
5.327	-0.503166
5.328	-0.597712
5.329	-0.602988
5.33	-0.564958
5.331	-0.515283
5.332	-0.464104
5.333	-0.412168
5.334	-0.356781
5.335	-0.286613
5.336	-0.185175
5.337	-0.047588
5.338	0.108499
5.339	0.255722
5.34	0.378399
5.341	0.470203
5.342	0.51539
5.343	0.491108
5.344	0.388366
5.345	0.217045
5.346	-0.004781
5.347	-0.250252
5.348	-0.475205
5.349	-0.623665
5.35	-0.654903
5.351	-0.577491
5.352	-0.447491
5.353	-0.321959
5.354	-0.222575
5.355	-0.139225
5.356	-0.05466
5.357	0.034821
5.358	0.123387
5.359	0.212707
5.36	0.306275
5.361	0.389443
5.362	0.432168
5.363	0.411372
5.364	0.322732
5.365	0.173023
5.366	-0.025393
5.367	-0.244838
5.368	-0.438107
5.369	-0.553817
5.37	-0.56381
5.371	-0.486628
5.372	-0.375994
5.373	-0.277244
5.374	-0.200595
5.375	-0.129938
5.376	-0.048608
5.377	0.041521
5.378	0.127353
5.379	0.204357
5.38	0.275047
5.381	0.331769
5.382	0.355888
5.383	0.333011
5.384	0.258162
5.385	0.130313
5.386	-0.04154
5.387	-0.226866
5.388	-0.380431
5.389	-0.463077
5.39	-0.463174
5.391	-0.405851
5.392	-0.332746
5.393	-0.269378
5.394	-0.213688
5.395	-0.149169
5.396	-0.067432
5.397	0.021452
5.398	0.103181
5.399	0.175354
5.4	0.240354
5.401	0.290325
5.402	0.308776
5.403	0.283059
5.404	0.209481
5.405	0.091793
5.406	-0.054373
5.407	-0.198377
5.408	-0.305826
5.409	-0.355158
5.41	-0.348938
5.411	-0.311244
5.412	-0.267467
5.413	-0.226476
5.414	-0.179554
5.415	-0.112544
5.416	-0.023942
5.417	0.069309
5.418	0.147547
5.419	0.204023
5.42	0.240608
5.421	0.255401
5.422	0.2421
5.423	0.197046
5.424	0.120181
5.425	0.016204
5.426	-0.097432
5.427	-0.193039
5.428	-0.250696
5.429	-0.270416
5.43	-0.267984
5.431	-0.260881
5.432	-0.256396
5.433	-0.249749
5.434	-0.227933
5.435	-0.179077
5.436	-0.105242
5.437	-0.022376
5.438	0.05457
5.439	0.120664
5.44	0.17225
5.441	0.197517
5.442	0.186266
5.443	0.140975
5.444	0.069778
5.445	-0.017254
5.446	-0.103146
5.447	-0.172312
5.448	-0.22212
5.449	-0.256044
5.45	-0.264403
5.451	-0.215464
5.452	-0.081109
5.453	0.112829
5.454	0.270758
5.455	0.291233
5.456	0.167167
5.457	0.007293
5.458	-0.063562
5.459	-0.013249
5.46	0.09302
5.461	0.168444
5.462	0.172819
5.463	0.118889
5.464	0.034988
5.465	-0.055999
5.466	-0.13245
5.467	-0.175855
5.468	-0.182034
5.469	-0.16905
5.47	-0.166722
5.471	-0.18981
5.472	-0.228327
5.473	-0.261499
5.474	-0.270001
5.475	-0.242535
5.476	-0.181369
5.477	-0.100867
5.478	-0.017692
5.479	0.056488
5.48	0.112723
5.481	0.146554
5.482	0.1612
5.483	0.156936
5.484	0.128835
5.485	0.078512
5.486	0.00978
5.487	-0.080794
5.488	-0.188783
5.489	-0.281722
5.49	-0.316293
5.491	-0.283333
5.492	-0.217534
5.493	-0.156108
5.494	-0.107582
5.495	-0.064582
5.496	-0.028989
5.497	-0.016075
5.498	-0.030033
5.499	-0.041197
5.5	-0.013109
5.501	0.050311
5.502	0.109806
5.503	0.132869
5.504	0.116084
5.505	0.07435
5.506	0.016085
5.507	-0.062884
5.508	-0.157917
5.509	-0.23778
5.51	-0.263216
5.511	-0.229062
5.512	-0.170724
5.513	-0.122204
5.514	-0.087507
5.515	-0.05449
5.516	-0.020081
5.517	0.002275
5.518	0.002447
5.519	-0.003963
5.52	0.008974
5.521	0.044081
5.522	0.079894
5.523	0.094928
5.524	0.084345
5.525	0.055979
5.526	0.012087
5.527	-0.054065
5.528	-0.135857
5.529	-0.19992
5.53	-0.211573
5.531	-0.173774
5.532	-0.123643
5.533	-0.089441
5.534	-0.068855
5.535	-0.046041
5.536	-0.016426
5.537	0.00666
5.538	0.012798
5.539	0.015263
5.54	0.034023
5.541	0.065432
5.542	0.087316
5.543	0.08663
5.544	0.068239
5.545	0.041769
5.546	0.010647
5.547	-0.025412
5.548	-0.061361
5.549	-0.082623
5.55	-0.078719
5.551	-0.062122
5.552	-0.056753
5.553	-0.068266
5.554	-0.079582
5.555	-0.07191
5.556	-0.045341
5.557	-0.019681
5.558	-0.010452
5.559	-0.008956
5.56	0.003842
5.561	0.030762
5.562	0.054677
5.563	0.056512
5.564	0.03189
5.565	-0.009501
5.566	-0.054666
5.567	-0.09271
5.568	-0.114291
5.569	-0.113061
5.57	-0.093795
5.571	-0.074259
5.572	-0.068938
5.573	-0.074969
5.574	-0.076754
5.575	-0.060839
5.576	-0.03079
5.577	-0.007096
5.578	-0.005956
5.579	-0.023233
5.58	-0.043461
5.581	-0.051225
5.582	-0.024529
5.583	0.065809
5.584	0.221622
5.585	0.37737
5.586	0.426027
5.587	0.315324
5.588	0.111422
5.589	-0.057035
5.59	-0.118015
5.591	-0.099597
5.592	-0.066925
5.593	-0.053406
5.594	-0.052216
5.595	-0.045417
5.596	-0.030398
5.597	-0.019573
5.598	-0.018478
5.599	-0.014787
5.6	0.003745
5.601	0.027105
5.602	0.030046
5.603	-0.000223
5.604	-0.051812
5.605	-0.09931
5.606	-0.119862
5.607	-0.105404
5.608	-0.067737
5.609	-0.031485
5.61	-0.018339
5.611	-0.033184
5.612	-0.06328
5.613	-0.089383
5.614	-0.096088
5.615	-0.078975
5.616	-0.048832
5.617	-0.023317
5.618	-0.008917
5.619	0.003934
5.62	0.022978
5.621	0.038669
5.622	0.034658
5.623	0.006225
5.624	-0.037027
5.625	-0.076743
5.626	-0.092228
5.627	-0.0714
5.628	-0.022344
5.629	0.02566
5.63	0.041957
5.631	0.020585
5.632	-0.019776
5.633	-0.05702
5.634	-0.076874
5.635	-0.07269
5.636	-0.048486
5.637	-0.018663
5.638	0.005857
5.639	0.026566
5.64	0.044089
5.641	0.047078
5.642	0.024248
5.643	-0.021705
5.644	-0.07522
5.645	-0.115411
5.646	-0.124327
5.647	-0.095495
5.648	-0.040678
5.649	0.010477
5.65	0.028331
5.651	0.007173
5.652	-0.034732
5.653	-0.07439
5.654	-0.096307
5.655	-0.094268
5.656	-0.070166
5.657	-0.031305
5.658	0.014174
5.659	0.056887
5.66	0.080117
5.661	0.067342
5.662	0.020158
5.663	-0.042461
5.664	-0.099047
5.665	-0.131812
5.666	-0.127661
5.667	-0.084121
5.668	-0.016643
5.669	0.042285
5.67	0.061998
5.671	0.037653
5.672	-0.010449
5.673	-0.056798
5.674	-0.082469
5.675	-0.076531
5.676	-0.037484
5.677	0.025013
5.678	0.092126
5.679	0.138744
5.68	0.140097
5.681	0.09085
5.682	0.019121
5.683	-0.031029
5.684	-0.037328
5.685	-0.017204
5.686	-0.007252
5.687	-0.031835
5.688	-0.087295
5.689	-0.139706
5.69	-0.148262
5.691	-0.108977
5.692	-0.058174
5.693	-0.026591
5.694	-0.012596
5.695	6.4e-05
5.696	0.01338
5.697	0.008856
5.698	-0.024351
5.699	-0.063533
5.7	-0.073353
5.701	-0.04583
5.702	-0.004356
5.703	0.024423
5.704	0.031073
5.705	0.018877
5.706	-0.011334
5.707	-0.065904
5.708	-0.142987
5.709	-0.209355
5.71	-0.207868
5.711	-0.10174
5.712	0.094841
5.713	0.315285
5.714	0.454572
5.715	0.426268
5.716	0.242837
5.717	0.017316
5.718	-0.132123
5.719	-0.165579
5.72	-0.118102
5.721	-0.046337
5.722	0.010388
5.723	0.037477
5.724	0.036441
5.725	0.013171
5.726	-0.027964
5.727	-0.080949
5.728	-0.130343
5.729	-0.151147
5.73	-0.131443
5.731	-0.092884
5.732	-0.069284
5.733	-0.070027
5.734	-0.075728
5.735	-0.064041
5.736	-0.037337
5.737	-0.022578
5.738	-0.038027
5.739	-0.068264
5.74	-0.081924
5.741	-0.065584
5.742	-0.032528
5.743	-0.005947
5.744	8.7e-05
5.745	-0.013203
5.746	-0.036722
5.747	-0.063445
5.748	-0.085953
5.749	-0.090974
5.75	-0.073686
5.751	-0.050856
5.752	-0.043502
5.753	-0.053187
5.754	-0.061593
5.755	-0.050628
5.756	-0.023781
5.757	-0.003865
5.758	-0.005899
5.759	-0.018941
5.76	-0.021176
5.761	-0.00721
5.762	0.007982
5.763	0.008239
5.764	-0.009382
5.765	-0.036184
5.766	-0.060641
5.767	-0.075263
5.768	-0.076458
5.769	-0.063873
5.77	-0.045187
5.771	-0.034192
5.772	-0.038517
5.773	-0.051775
5.774	-0.057717
5.775	-0.044931
5.776	-0.020641
5.777	-0.004709
5.778	-0.006807
5.779	-0.014775
5.78	-0.009608
5.781	0.011921
5.782	0.033989
5.783	0.037137
5.784	0.013924
5.785	-0.026394
5.786	-0.066458
5.787	-0.091909
5.788	-0.094888
5.789	-0.078059
5.79	-0.056859
5.791	-0.047835
5.792	-0.055093
5.793	-0.069412
5.794	-0.076298
5.795	-0.067573
5.796	-0.048882
5.797	-0.033231
5.798	-0.024541
5.799	-0.011849
5.8	0.014225
5.801	0.044888
5.802	0.05992
5.803	0.045793
5.804	0.005814
5.805	-0.041776
5.806	-0.07524
5.807	-0.080337
5.808	-0.055668
5.809	-0.015997
5.81	0.01449
5.811	0.019623
5.812	-0.000528
5.813	-0.033861
5.814	-0.063023
5.815	-0.074702
5.816	-0.067489
5.817	-0.04944
5.818	-0.025882
5.819	0.005473
5.82	0.042129
5.821	0.070156
5.822	0.074857
5.823	0.049548
5.824	-0.001582
5.825	-0.063177
5.826	-0.114572
5.827	-0.136541
5.828	-0.121221
5.829	-0.084699
5.83	-0.057124
5.831	-0.053844
5.832	-0.067646
5.833	-0.084117
5.834	-0.092192
5.835	-0.08521
5.836	-0.061561
5.837	-0.025233
5.838	0.017782
5.839	0.058873
5.84	0.0804
5.841	0.065524
5.842	0.022182
5.843	-0.009847
5.844	0.019326
5.845	0.128231
5.846	0.268564
5.847	0.340057
5.848	0.269595
5.849	0.086842
5.85	-0.09458
5.851	-0.180718
5.852	-0.170597
5.853	-0.125566
5.854	-0.092956
5.855	-0.07443
5.856	-0.049148
5.857	-0.004017
5.858	0.058341
5.859	0.120443
5.86	0.155184
5.861	0.145961
5.862	0.098957
5.863	0.031033
5.864	-0.045184
5.865	-0.122588
5.866	-0.189291
5.867	-0.223085
5.868	-0.209102
5.869	-0.162569
5.87	-0.119223
5.871	-0.103349
5.872	-0.114095
5.873	-0.135656
5.874	-0.14939
5.875	-0.138675
5.876	-0.094212
5.877	-0.019321
5.878	0.070422
5.879	0.147327
5.88	0.180844
5.881	0.160954
5.882	0.104054
5.883	0.032556
5.884	-0.042768
5.885	-0.119348
5.886	-0.184597
5.887	-0.210884
5.888	-0.181042
5.889	-0.115978
5.89	-0.062389
5.891	-0.050183
5.892	-0.072983
5.893	-0.106509
5.894	-0.127722
5.895	-0.118632
5.896	-0.070628
5.897	0.011249
5.898	0.110041
5.899	0.19648
5.9	0.237264
5.901	0.218626
5.902	0.15553
5.903	0.073883
5.904	-0.010622
5.905	-0.093022
5.906	-0.165878
5.907	-0.22162
5.908	-0.25772
5.909	-0.262854
5.91	-0.223311
5.911	-0.152473
5.912	-0.08419
5.913	-0.037977
5.914	-0.007924
5.915	0.019193
5.916	0.041857
5.917	0.045917
5.918	0.03273
5.919	0.031053
5.92	0.067104
5.921	0.131924
5.922	0.188001
5.923	0.200266
5.924	0.155787
5.925	0.064464
5.926	-0.04854
5.927	-0.153279
5.928	-0.222788
5.929	-0.237984
5.93	-0.19959
5.931	-0.133829
5.932	-0.073392
5.933	-0.033261
5.934	-0.006797
5.935	0.017822
5.936	0.039479
5.937	0.048324
5.938	0.049625
5.939	0.070567
5.94	0.131205
5.941	0.215422
5.942	0.280452
5.943	0.288002
5.944	0.224034
5.945	0.104207
5.946	-0.033935
5.947	-0.150828
5.948	-0.220275
5.949	-0.234469
5.95	-0.2051
5.951	-0.15688
5.952	-0.112757
5.953	-0.08131
5.954	-0.056417
5.955	-0.030533
5.956	-0.006164
5.957	0.011555
5.958	0.032246
5.959	0.078756
5.96	0.158468
5.961	0.243166
5.962	0.287435
5.963	0.260555
5.964	0.161128
5.965	0.017027
5.966	-0.126827
5.967	-0.229269
5.968	-0.268857
5.969	-0.250505
5.97	-0.199439
5.971	-0.145076
5.972	-0.109471
5.973	-0.101918
5.974	-0.114654
5.975	-0.122685
5.976	-0.087834
5.977	0.030216
5.978	0.246917
5.979	0.513208
5.98	0.70695
5.981	0.712729
5.982	0.533054
5.983	0.283413
5.984	0.073654
5.985	-0.067713
5.986	-0.163721
5.987	-0.229637
5.988	-0.257393
5.989	-0.241718
5.99	-0.197222
5.991	-0.146304
5.992	-0.105176
5.993	-0.080582
5.994	-0.070201
5.995	-0.065461
5.996	-0.054957
5.997	-0.025865
5.998	0.036272
5.999	0.137891
6.0	0.257016
6.001	0.346547
6.002	0.365664
6.003	0.299299
6.004	0.159494
6.005	-0.018067
6.006	-0.186304
6.007	-0.302882
6.008	-0.344195
6.009	-0.315948
6.01	-0.247506
6.011	-0.172385
6.012	-0.115149
6.013	-0.087022
6.014	-0.08387
6.015	-0.087623
6.016	-0.073596
6.017	-0.020781
6.018	0.081818
6.019	0.226045
6.02	0.374467
6.021	0.473302
6.022	0.481354
6.023	0.387287
6.024	0.212022
6.025	-0.001003
6.026	-0.20056
6.027	-0.337446
6.028	-0.380257
6.029	-0.335329
6.03	-0.242127
6.031	-0.146313
6.032	-0.080408
6.033	-0.058203
6.034	-0.072485
6.035	-0.094652
6.036	-0.085536
6.037	-0.015063
6.038	0.123751
6.039	0.305197
6.04	0.473612
6.041	0.570772
6.042	0.561917
6.043	0.441889
6.044	0.232779
6.045	-0.021513
6.046	-0.260969
6.047	-0.420834
6.048	-0.459995
6.049	-0.388032
6.05	-0.259059
6.051	-0.136562
6.052	-0.063
6.053	-0.051069
6.054	-0.084835
6.055	-0.123491
6.056	-0.117394
6.057	-0.031301
6.058	0.139669
6.059	0.360354
6.06	0.562838
6.061	0.677486
6.062	0.661465
6.063	0.510105
6.064	0.254643
6.065	-0.047537
6.066	-0.319983
6.067	-0.484405
6.068	-0.499864
6.069	-0.391644
6.07	-0.23347
6.071	-0.097351
6.072	-0.021006
6.073	-0.010154
6.074	-0.046157
6.075	-0.090399
6.076	-0.102923
6.077	-0.061274
6.078	0.044788
6.079	0.220521
6.08	0.444991
6.081	0.649852
6.082	0.743571
6.083	0.66742
6.084	0.42868
6.085	0.089696
6.086	-0.260771
6.087	-0.534296
6.088	-0.664476
6.089	-0.623077
6.09	-0.440506
6.091	-0.207589
6.092	-0.027298
6.093	0.044268
6.094	0.016527
6.095	-0.057028
6.096	-0.115606
6.097	-0.112013
6.098	-0.009277
6.099	0.211161
6.1	0.51282
6.101	0.789172
6.102	0.912874
6.103	0.811826
6.104	0.503647
6.105	0.074342
6.106	-0.36104
6.107	-0.688292
6.108	-0.813538
6.109	-0.684407
6.11	-0.325495
6.111	0.133592
6.112	0.487004
6.113	0.559719
6.114	0.337052
6.115	-0.010688
6.116	-0.2604
6.117	-0.289616
6.118	-0.100715
6.119	0.242844
6.12	0.645106
6.121	0.973184
6.122	1.094675
6.123	0.945909
6.124	0.56282
6.125	0.058604
6.126	-0.422017
6.127	-0.75044
6.128	-0.853285
6.129	-0.73341
6.13	-0.467074
6.131	-0.175359
6.132	0.0246
6.133	0.068966
6.134	-0.029264
6.135	-0.194345
6.136	-0.324689
6.137	-0.327889
6.138	-0.144664
6.139	0.224367
6.14	0.688201
6.141	1.077351
6.142	1.223066
6.143	1.045279
6.144	0.585823
6.145	-0.014747
6.146	-0.573486
6.147	-0.931556
6.148	-1.007119
6.149	-0.818323
6.15	-0.469134
6.151	-0.106252
6.152	0.13391
6.153	0.175202
6.154	0.031477
6.155	-0.201411
6.156	-0.386282
6.157	-0.396702
6.158	-0.160367
6.159	0.305998
6.16	0.872655
6.161	1.329437
6.162	1.485797
6.163	1.261551
6.164	0.71299
6.165	0.004874
6.166	-0.651427
6.167	-1.070759
6.168	-1.154611
6.169	-0.923258
6.17	-0.502868
6.171	-0.070436
6.172	0.21876
6.173	0.297507
6.174	0.209431
6.175	0.044003
6.176	-0.213647
6.177	-0.810048
6.178	-2.096457
6.179	-4.077693
6.18	-6.142069
6.181	-7.453572
6.182	-7.520028
6.183	-6.302061
6.184	-4.035655
6.185	-1.095878
6.186	2.017857
6.187	4.614152
6.188	5.937865
6.189	5.672149
6.19	4.316702
6.191	2.807356
6.192	1.745525
6.193	1.139084
6.194	0.740247
6.195	0.409229
6.196	0.195493
6.197	0.228785
6.198	0.588427
6.199	1.222626
6.2	1.9378
6.201	2.470103
6.202	2.59669
6.203	2.221763
6.204	1.412166
6.205	0.3778
6.206	-0.597268
6.207	-1.250014
6.208	-1.432646
6.209	-1.168463
6.21	-0.633918
6.211	-0.075264
6.212	0.298602
6.213	0.402965
6.214	0.298153
6.215	0.111517
6.216	-0.132876
6.217	-0.667811
6.218	-1.871551
6.219	-3.803399
6.22	-5.872755
6.221	-7.182016
6.222	-7.185558
6.223	-5.912183
6.224	-3.701896
6.225	-0.933307
6.226	1.97012
6.227	4.391367
6.228	5.6193
6.229	5.348983
6.23	4.060025
6.231	2.647481
6.232	1.670705
6.233	1.112024
6.234	0.727672
6.235	0.407461
6.236	0.232026
6.237	0.342066
6.238	0.804737
6.239	1.549724
6.24	2.383427
6.241	3.058954
6.242	3.342285
6.243	3.056177
6.244	2.147707
6.245	0.783152
6.246	-0.634828
6.247	-1.633474
6.248	-1.935015
6.249	-1.593708
6.25	-0.908655
6.251	-0.226295
6.252	0.214726
6.253	0.344436
6.254	0.248715
6.255	0.078103
6.256	-0.129917
6.257	-0.605716
6.258	-1.733975
6.259	-3.591075
6.26	-5.603156
6.261	-6.869179
6.262	-6.835379
6.263	-5.548661
6.264	-3.377839
6.265	-0.713483
6.266	2.02219
6.267	4.230098
6.268	5.254253
6.269	4.872977
6.27	3.615551
6.271	2.340412
6.272	1.520487
6.273	1.081517
6.274	0.773525
6.275	0.49613
6.276	0.333085
6.277	0.431053
6.278	0.883039
6.279	1.65388
6.28	2.544436
6.281	3.234114
6.282	3.414731
6.283	2.939224
6.284	1.889885
6.285	0.53934
6.286	-0.754239
6.287	-1.66612
6.288	-2.004738
6.289	-1.768865
6.29	-1.144918
6.291	-0.429933
6.292	0.105029
6.293	0.339879
6.294	0.335373
6.295	0.231522
6.296	0.050662
6.297	-0.451991
6.298	-1.649171
6.299	-3.569625
6.3	-5.591567
6.301	-6.807351
6.302	-6.697542
6.303	-5.35478
6.304	-3.177489
6.305	-0.55776
6.306	2.105099
6.307	4.243061
6.308	5.21795
6.309	4.806949
6.31	3.531829
6.311	2.247603
6.312	1.429757
6.313	1.009895
6.314	0.740867
6.315	0.518987
6.316	0.422113
6.317	0.589163
6.318	1.09992
6.319	1.901232
6.32	2.779733
6.321	3.418775
6.322	3.535613
6.323	3.009739
6.324	1.93284
6.325	0.572479
6.326	-0.723558
6.327	-1.639231
6.328	-1.988607
6.329	-1.77695
6.33	-1.191879
6.331	-0.516133
6.332	0.001761
6.333	0.256539
6.334	0.30928
6.335	0.287542
6.336	0.192292
6.337	-0.248442
6.338	-1.431807
6.339	-3.391376
6.34	-5.482303
6.341	-6.759422
6.342	-6.675603
6.343	-5.321153
6.344	-3.113362
6.345	-0.465154
6.346	2.213368
6.347	4.345891
6.348	5.284078
6.349	4.805857
6.35	3.451568
6.351	2.102642
6.352	1.256737
6.353	0.855955
6.354	0.649833
6.355	0.521057
6.356	0.526151
6.357	0.776779
6.358	1.3253
6.359	2.100479
6.36	2.895437
6.361	3.431093
6.362	3.472907
6.363	2.930663
6.364	1.893146
6.365	0.594675
6.366	-0.656935
6.367	-1.570103
6.368	-1.966962
6.369	-1.842714
6.37	-1.342373
6.371	-0.678965
6.372	-0.048815
6.373	0.420271
6.374	0.678292
6.375	0.725962
6.376	0.531346
6.377	-0.092897
6.378	-1.434188
6.379	-3.483231
6.38	-5.615377
6.381	-6.908775
6.382	-6.81239
6.383	-5.403073
6.384	-3.098451
6.385	-0.331419
6.386	2.448886
6.387	4.620192
6.388	5.511153
6.389	4.917456
6.39	3.42398
6.391	1.959505
6.392	1.057177
6.393	0.676297
6.394	0.563379
6.395	0.576056
6.396	0.724569
6.397	1.064948
6.398	1.604304
6.399	2.2589
6.4	2.861456
6.401	3.21653
6.402	3.172805
6.403	2.675218
6.404	1.785708
6.405	0.6754
6.406	-0.410732
6.407	-1.223139
6.408	-1.599809
6.409	-1.533891
6.41	-1.167702
6.411	-0.710982
6.412	-0.33722
6.413	-0.118635
6.414	-0.018032
6.415	0.072513
6.416	0.266742
6.417	0.6296
6.418	1.153852
6.419	1.756145
6.42	2.292278
6.421	2.601871
6.422	2.563731
6.423	2.136191
6.424	1.374968
6.425	0.429986
6.426	-0.483864
6.427	-1.152474
6.428	-1.447382
6.429	-1.378985
6.43	-1.07736
6.431	-0.712053
6.432	-0.410945
6.433	-0.221759
6.434	-0.112224
6.435	0.000432
6.436	0.200851
6.437	0.53585
6.438	0.996395
6.439	1.511336
6.44	1.960586
6.441	2.214977
6.442	2.1783
6.443	1.814774
6.444	1.168488
6.445	0.369899
6.446	-0.393096
6.447	-0.942022
6.448	-1.180033
6.449	-1.128662
6.45	-0.899709
6.451	-0.621669
6.452	-0.383902
6.453	-0.219424
6.454	-0.105825
6.455	0.016736
6.456	0.211585
6.457	0.515745
6.458	0.921703
6.459	1.366992
6.46	1.745638
6.461	1.946695
6.462	1.892927
6.463	1.562897
6.464	1.003922
6.465	0.332717
6.466	-0.293375
6.467	-0.730546
6.468	-0.905069
6.469	-0.846107
6.47	-0.658279
6.471	-0.448454
6.472	-0.279588
6.473	-0.166949
6.474	-0.08365
6.475	0.024518
6.476	0.209448
6.477	0.493734
6.478	0.858567
6.479	1.242673
6.48	1.555014
6.481	1.705872
6.482	1.638227
6.483	1.344724
6.484	0.875921
6.485	0.329419
6.486	-0.190303
6.487	-0.602761
6.488	-0.847648
6.489	-0.889738
6.49	-0.750827
6.491	-0.51474
6.492	-0.2774
6.493	-0.090301
6.494	0.050902
6.495	0.178254
6.496	0.319328
6.497	0.488252
6.498	0.698968
6.499	0.957902
6.5	1.224132
6.501	1.406101
6.502	1.422721
6.503	1.263171
6.504	0.98915
6.505	0.676084
6.506	0.346718
6.507	-0.018322
6.508	-0.392789
6.509	-0.662819
6.51	-0.71522
6.511	-0.555116
6.512	-0.300505
6.513	-0.071248
6.514	0.091131
6.515	0.212839
6.516	0.334394
6.517	0.480439
6.518	0.667027
6.519	0.898761
6.52	1.137862
6.521	1.301279
6.522	1.30738
6.523	1.125288
6.524	0.788258
6.525	0.371114
6.526	-0.040915
6.527	-0.372905
6.528	-0.573583
6.529	-0.623694
6.53	-0.541967
6.531	-0.382876
6.532	-0.210531
6.533	-0.063257
6.534	0.058241
6.535	0.175542
6.536	0.308308
6.537	0.464248
6.538	0.647523
6.539	0.853177
6.54	1.045941
6.541	1.164903
6.542	1.155442
6.543	0.999037
6.544	0.721737
6.545	0.377459
6.546	0.028746
6.547	-0.261229
6.548	-0.439563
6.549	-0.481534
6.55	-0.403966
6.551	-0.259941
6.552	-0.108714
6.553	0.017013
6.554	0.119828
6.555	0.222853
6.556	0.345485
6.557	0.491783
6.558	0.659185
6.559	0.837168
6.56	0.991459
6.561	1.070963
6.562	1.038081
6.563	0.888888
6.564	0.648194
6.565	0.355374
6.566	0.060717
6.567	-0.179068
6.568	-0.319102
6.569	-0.344326
6.57	-0.276042
6.571	-0.160999
6.572	-0.043483
6.573	0.056724
6.574	0.146044
6.575	0.243459
6.576	0.360624
6.577	0.495385
6.578	0.641694
6.579	0.788305
6.58	0.908049
6.581	0.965352
6.582	0.934918
6.583	0.811289
6.584	0.607929
6.585	0.355213
6.586	0.101645
6.587	-0.09673
6.588	-0.202
6.589	-0.211665
6.59	-0.154459
6.591	-0.068966
6.592	0.018225
6.593	0.098469
6.594	0.177724
6.595	0.268654
6.596	0.376712
6.597	0.497316
6.598	0.626523
6.599	0.758951
6.6	0.872919
6.601	0.931725
6.602	0.905815
6.603	0.78976
6.604	0.599171
6.605	0.366924
6.606	0.14485
6.607	-0.013267
6.608	-0.082573
6.609	-0.079397
6.61	-0.041147
6.611	0.006234
6.612	0.057644
6.613	0.115774
6.614	0.18445
6.615	0.267704
6.616	0.364605
6.617	0.470446
6.618	0.582291
6.619	0.692618
6.62	0.779466
6.621	0.813221
6.622	0.775176
6.623	0.666812
6.624	0.506426
6.625	0.327701
6.626	0.174623
6.627	0.081557
6.628	0.053984
6.629	0.066628
6.63	0.085736
6.631	0.096898
6.632	0.103635
6.633	0.112855
6.634	0.140592
6.635	0.220737
6.636	0.390747
6.637	0.656678
6.638	0.956591
6.639	1.163527
6.64	1.165974
6.641	0.97246
6.642	0.710704
6.643	0.503372
6.644	0.37412
6.645	0.284059
6.646	0.210088
6.647	0.161387
6.648	0.146555
6.649	0.149891
6.65	0.148576
6.651	0.142672
6.652	0.151495
6.653	0.190809
6.654	0.261198
6.655	0.342276
6.656	0.397237
6.657	0.404181
6.658	0.391367
6.659	0.419471
6.66	0.512226
6.661	0.625552
6.662	0.692309
6.663	0.675743
6.664	0.585336
6.665	0.460102
6.666	0.341254
6.667	0.259455
6.668	0.225422
6.669	0.218726
6.67	0.209988
6.671	0.19601
6.672	0.193377
6.673	0.212024
6.674	0.250331
6.675	0.303688
6.676	0.367667
6.677	0.435483
6.678	0.50134
6.679	0.566796
6.68	0.632265
6.681	0.683403
6.682	0.696699
6.683	0.659522
6.684	0.581124
6.685	0.481324
6.686	0.372164
6.687	0.259368
6.688	0.160579
6.689	0.10869
6.69	0.125226
6.691	0.196124
6.692	0.285319
6.693	0.365046
6.694	0.424901
6.695	0.46288
6.696	0.477652
6.697	0.473371
6.698	0.473162
6.699	0.507418
6.7	0.577041
6.701	0.647199
6.702	0.679343
6.703	0.659841
6.704	0.602714
6.705	0.52582
6.706	0.430989
6.707	0.318993
6.708	0.214198
6.709	0.157555
6.71	0.171384
6.711	0.237974
6.712	0.31892
6.713	0.387165
6.714	0.435658
6.715	0.467996
6.716	0.487503
6.717	0.497223
6.718	0.51086
6.719	0.544542
6.72	0.592481
6.721	0.629812
6.722	0.636911
6.723	0.612076
6.724	0.566319
6.725	0.50743
6.726	0.432927
6.727	0.343547
6.728	0.259666
6.729	0.216818
6.73	0.236025
6.731	0.30215
6.732	0.381011
6.733	0.448752
6.734	0.499229
6.735	0.534199
6.736	0.552397
6.737	0.552248
6.738	0.545155
6.739	0.550195
6.74	0.571289
6.741	0.591391
6.742	0.590366
6.743	0.563795
6.744	0.520421
6.745	0.465277
6.746	0.39883
6.747	0.329525
6.748	0.276137
6.749	0.257838
6.75	0.278516
6.751	0.322224
6.752	0.369137
6.753	0.409156
6.754	0.442067
6.755	0.472001
6.756	0.499055
6.757	0.520254
6.758	0.539512
6.759	0.562935
6.76	0.58547
6.761	0.594386
6.762	0.581904
6.763	0.548022
6.764	0.494613
6.765	0.426147
6.766	0.362778
6.767	0.346443
6.768	0.422685
6.769	0.596794
6.77	0.790967
6.771	0.87326
6.772	0.772735
6.773	0.560915
6.774	0.389972
6.775	0.351434
6.776	0.415774
6.777	0.50001
6.778	0.556085
6.779	0.584896
6.78	0.598317
6.781	0.595816
6.782	0.57413
6.783	0.539541
6.784	0.50057
6.785	0.460359
6.786	0.423067
6.787	0.396235
6.788	0.3829
6.789	0.377333
6.79	0.372103
6.791	0.368075
6.792	0.371992
6.793	0.387362
6.794	0.413433
6.795	0.446602
6.796	0.479606
6.797	0.506495
6.798	0.528711
6.799	0.549261
6.8	0.563106
6.801	0.561071
6.802	0.541732
6.803	0.512637
6.804	0.481189
6.805	0.451913
6.806	0.431997
6.807	0.431218
6.808	0.449894
6.809	0.470096
6.81	0.472119
6.811	0.45733
6.812	0.442231
6.813	0.43933
6.814	0.451823
6.815	0.475669
6.816	0.502586
6.817	0.527394
6.818	0.553283
6.819	0.583503
6.82	0.60755
6.821	0.607128
6.822	0.578224
6.823	0.534862
6.824	0.492497
6.825	0.46131
6.826	0.451314
6.827	0.468697
6.828	0.502833
6.829	0.526367
6.83	0.520455
6.831	0.493988
6.832	0.46848
6.833	0.456525
6.834	0.460796
6.835	0.48025
6.836	0.511203
6.837	0.547243
6.838	0.582005
6.839	0.610965
6.84	0.631677
6.841	0.646312
6.842	0.657918
6.843	0.662795
6.844	0.653596
6.845	0.622989
6.846	0.562139
6.847	0.471394
6.848	0.378374
6.849	0.32957
6.85	0.348823
6.851	0.413174
6.852	0.479947
6.853	0.524265
6.854	0.543956
6.855	0.542502
6.856	0.515334
6.857	0.457608
6.858	0.391201
6.859	0.362795
6.86	0.396144
6.861	0.467098
6.862	0.534509
6.863	0.574698
6.864	0.58229
6.865	0.553057
6.866	0.478936
6.867	0.36418
6.868	0.241785
6.869	0.162326
6.87	0.15311
6.871	0.191394
6.872	0.22968
6.873	0.239235
6.874	0.220452
6.875	0.182926
6.876	0.125194
6.877	0.039655
6.878	-0.060745
6.879	-0.141547
6.88	-0.18199
6.881	-0.191784
6.882	-0.193017
6.883	-0.200968
6.884	-0.220553
6.885	-0.252751
6.886	-0.30036
6.887	-0.366901
6.888	-0.445696
6.889	-0.510458
6.89	-0.535841
6.891	-0.529971
6.892	-0.526067
6.893	-0.546706
6.894	-0.590361
6.895	-0.642368
6.896	-0.686045
6.897	-0.697186
6.898	-0.637327
6.899	-0.489852
6.9	-0.317901
6.901	-0.247683
6.902	-0.355765
6.903	-0.580816
6.904	-0.778586
6.905	-0.860851
6.906	-0.853086
6.907	-0.83278
6.908	-0.845596
6.909	-0.878306
6.91	-0.898037
6.911	-0.900723
6.912	-0.90713
6.913	-0.928395
6.914	-0.953853
6.915	-0.968411
6.916	-0.975601
6.917	-0.995816
6.918	-1.03943
6.919	-1.093355
6.92	-1.13479
6.921	-1.148653
6.922	-1.13589
6.923	-1.110774
6.924	-1.089268
6.925	-1.079483
6.926	-1.081473
6.927	-1.095306
6.928	-1.121859
6.929	-1.151325
6.93	-1.168979
6.931	-1.17625
6.932	-1.187436
6.933	-1.207527
6.934	-1.224964
6.935	-1.227015
6.936	-1.219275
6.937	-1.222183
6.938	-1.246992
6.939	-1.284492
6.94	-1.3157
6.941	-1.326248
6.942	-1.315602
6.943	-1.296921
6.944	-1.284063
6.945	-1.277057
6.946	-1.265275
6.947	-1.247312
6.948	-1.23651
6.949	-1.241452
6.95	-1.255473
6.951	-1.270847
6.952	-1.289286
6.953	-1.311196
6.954	-1.324994
6.955	-1.318857
6.956	-1.299856
6.957	-1.290128
6.958	-1.303547
6.959	-1.332383
6.96	-1.355224
6.961	-1.3557
6.962	-1.336207
6.963	-1.313913
6.964	-1.302802
6.965	-1.299409
6.966	-1.288272
6.967	-1.263967
6.968	-1.241403
6.969	-1.238296
6.97	-1.255246
6.971	-1.281109
6.972	-1.308768
6.973	-1.333494
6.974	-1.344679
6.975	-1.334151
6.976	-1.30948
6.977	-1.289378
6.978	-1.286546
6.979	-1.299026
6.98	-1.315433
6.981	-1.325005
6.982	-1.325126
6.983	-1.322064
6.984	-1.321891
6.985	-1.31783
6.986	-1.293128
6.987	-1.245196
6.988	-1.199901
6.989	-1.187426
6.99	-1.209185
6.991	-1.243203
6.992	-1.27188
6.993	-1.287716
6.994	-1.283941
6.995	-1.257301
6.996	-1.216991
6.997	-1.182171
6.998	-1.168084
6.999	-1.176103
7.0	-1.197915
7.001	-1.224309
7.002	-1.248919
7.003	-1.2692
7.004	-1.282587
7.005	-1.278103
7.006	-1.239732
7.007	-1.170624
7.008	-1.108107
7.009	-1.092514
7.01	-1.123583
7.011	-1.169681
7.012	-1.208039
7.013	-1.232886
7.014	-1.238938
7.015	-1.218761
7.016	-1.174349
7.017	-1.121657
7.018	-1.08023
7.019	-1.061638
7.02	-1.066654
7.021	-1.085813
7.022	-1.105211
7.023	-1.117809
7.024	-1.124954
7.025	-1.124982
7.026	-1.108879
7.027	-1.076851
7.028	-1.051395
7.029	-1.04765
7.03	-1.031584
7.031	-0.945255
7.032	-0.786369
7.033	-0.642472
7.034	-0.626722
7.035	-0.764664
7.036	-0.954015
7.037	-1.059377
7.038	-1.037014
7.039	-0.952167
7.04	-0.892762
7.041	-0.891812
7.042	-0.929663
7.043	-0.978086
7.044	-1.022241
7.045	-1.051533
7.046	-1.048853
7.047	-1.00594
7.048	-0.948459
7.049	-0.920056
7.05	-0.936453
7.051	-0.978744
7.052	-1.025017
7.053	-1.062823
7.054	-1.078022
7.055	-1.053456
7.056	-0.984711
7.057	-0.890447
7.058	-0.804542
7.059	-0.760148
7.06	-0.769995
7.061	-0.816559
7.062	-0.870935
7.063	-0.917691
7.064	-0.955497
7.065	-0.979861
7.066	-0.973848
7.067	-0.927264
7.068	-0.863557
7.069	-0.824991
7.07	-0.828708
7.071	-0.859165
7.072	-0.896759
7.073	-0.92956
7.074	-0.943062
7.075	-0.923181
7.076	-0.876699
7.077	-0.830945
7.078	-0.801376
7.079	-0.775044
7.08	-0.735088
7.081	-0.685784
7.082	-0.646651
7.083	-0.633539
7.084	-0.651054
7.085	-0.694327
7.086	-0.753305
7.087	-0.818753
7.088	-0.875908
7.089	-0.896315
7.09	-0.863306
7.091	-0.800181
7.092	-0.748156
7.093	-0.724427
7.094	-0.713258
7.095	-0.693097
7.096	-0.666037
7.097	-0.651392
7.098	-0.652984
7.099	-0.650682
7.1	-0.626175
7.101	-0.584213
7.102	-0.547644
7.103	-0.539426
7.104	-0.569512
7.105	-0.630284
7.106	-0.702035
7.107	-0.766584
7.108	-0.809413
7.109	-0.814034
7.11	-0.77676
7.111	-0.722016
7.112	-0.682477
7.113	-0.667016
7.114	-0.657127
7.115	-0.633877
7.116	-0.602202
7.117	-0.580709
7.118	-0.572441
7.119	-0.560123
7.12	-0.529379
7.121	-0.486809
7.122	-0.456284
7.123	-0.461512
7.124	-0.507551
7.125	-0.573624
7.126	-0.629558
7.127	-0.661348
7.128	-0.670116
7.129	-0.655783
7.13	-0.622525
7.131	-0.590696
7.132	-0.583064
7.133	-0.598944
7.134	-0.612932
7.135	-0.603288
7.136	-0.573826
7.137	-0.54165
7.138	-0.511211
7.139	-0.472535
7.14	-0.422475
7.141	-0.377013
7.142	-0.362698
7.143	-0.398629
7.144	-0.479609
7.145	-0.573295
7.146	-0.641716
7.147	-0.66899
7.148	-0.664358
7.149	-0.643149
7.15	-0.614998
7.151	-0.589129
7.152	-0.575591
7.153	-0.572194
7.154	-0.561936
7.155	-0.532398
7.156	-0.489615
7.157	-0.447672
7.158	-0.411341
7.159	-0.377103
7.16	-0.348425
7.161	-0.336457
7.162	-0.340585
7.163	-0.335177
7.164	-0.286017
7.165	-0.196272
7.166	-0.135919
7.167	-0.19255
7.168	-0.371727
7.169	-0.568319
7.17	-0.662845
7.171	-0.634101
7.172	-0.554497
7.173	-0.494866
7.174	-0.467767
7.175	-0.449396
7.176	-0.419375
7.177	-0.372606
7.178	-0.310793
7.179	-0.240383
7.18	-0.179843
7.181	-0.156036
7.182	-0.189461
7.183	-0.282242
7.184	-0.411491
7.185	-0.534833
7.186	-0.611796
7.187	-0.627519
7.188	-0.600206
7.189	-0.560532
7.19	-0.525105
7.191	-0.497955
7.192	-0.48335
7.193	-0.481081
7.194	-0.478687
7.195	-0.458148
7.196	-0.409024
7.197	-0.333065
7.198	-0.239178
7.199	-0.143468
7.2	-0.071925
7.201	-0.05156
7.202	-0.097797
7.203	-0.206322
7.204	-0.349867
7.205	-0.48612
7.206	-0.574099
7.207	-0.593991
7.208	-0.561041
7.209	-0.509358
7.21	-0.460197
7.211	-0.420233
7.212	-0.397093
7.213	-0.394511
7.214	-0.399193
7.215	-0.384746
7.216	-0.330483
7.217	-0.234301
7.218	-0.111775
7.219	0.005929
7.22	0.080362
7.221	0.085023
7.222	0.014667
7.223	-0.117547
7.224	-0.283398
7.225	-0.443453
7.226	-0.553285
7.227	-0.582934
7.228	-0.542442
7.229	-0.472714
7.23	-0.407575
7.231	-0.360822
7.232	-0.338498
7.233	-0.339965
7.234	-0.349883
7.235	-0.345171
7.236	-0.315522
7.237	-0.264636
7.238	-0.187165
7.239	-0.071521
7.24	0.063337
7.241	0.160719
7.242	0.169518
7.243	0.082779
7.244	-0.070733
7.245	-0.255231
7.246	-0.437759
7.247	-0.585343
7.248	-0.661333
7.249	-0.633529
7.25	-0.50952
7.251	-0.352177
7.252	-0.233647
7.253	-0.182869
7.254	-0.179943
7.255	-0.186548
7.256	-0.178644
7.257	-0.146914
7.258	-0.074901
7.259	0.052383
7.26	0.210891
7.261	0.332826
7.262	0.352263
7.263	0.248953
7.264	0.048606
7.265	-0.198377
7.266	-0.430854
7.267	-0.593489
7.268	-0.651691
7.269	-0.596562
7.27	-0.457446
7.271	-0.301819
7.272	-0.19546
7.273	-0.16054
7.274	-0.171632
7.275	-0.185762
7.276	-0.17572
7.277	-0.13185
7.278	-0.043032
7.279	0.097037
7.28	0.259469
7.281	0.376425
7.282	0.381689
7.283	0.254022
7.284	0.024098
7.285	-0.244605
7.286	-0.479723
7.287	-0.623583
7.288	-0.646321
7.289	-0.552735
7.29	-0.391171
7.291	-0.240321
7.292	-0.165378
7.293	-0.175783
7.294	-0.21593
7.295	-0.198388
7.296	-0.059596
7.297	0.197024
7.298	0.490763
7.299	0.700681
7.3	0.746115
7.301	0.642231
7.302	0.462506
7.303	0.254982
7.304	0.019965
7.305	-0.236642
7.306	-0.465692
7.307	-0.603234
7.308	-0.614299
7.309	-0.508989
7.31	-0.338953
7.311	-0.177603
7.312	-0.085634
7.313	-0.080637
7.314	-0.132624
7.315	-0.189087
7.316	-0.203343
7.317	-0.142005
7.318	0.013592
7.319	0.247836
7.32	0.491487
7.321	0.642216
7.322	0.620328
7.323	0.412946
7.324	0.079662
7.325	-0.273962
7.326	-0.543355
7.327	-0.668567
7.328	-0.644927
7.329	-0.507163
7.33	-0.31451
7.331	-0.139271
7.332	-0.043814
7.333	-0.049288
7.334	-0.123709
7.335	-0.202583
7.336	-0.22017
7.337	-0.129693
7.338	0.083053
7.339	0.38181
7.34	0.67323
7.341	0.840475
7.342	0.802211
7.343	0.55055
7.344	0.153815
7.345	-0.267471
7.346	-0.587749
7.347	-0.728215
7.348	-0.681169
7.349	-0.496695
7.35	-0.255511
7.351	-0.047978
7.352	0.052383
7.353	0.023101
7.354	-0.09438
7.355	-0.216541
7.356	-0.255124
7.357	-0.148937
7.358	0.113665
7.359	0.477409
7.36	0.824464
7.361	1.019534
7.362	0.970537
7.363	0.668657
7.364	0.196416
7.365	-0.302665
7.366	-0.682673
7.367	-0.849649
7.368	-0.788231
7.369	-0.554688
7.37	-0.250133
7.371	0.008633
7.372	0.127119
7.373	0.07656
7.374	-0.089579
7.375	-0.259981
7.376	-0.314453
7.377	-0.173412
7.378	0.166795
7.379	0.618774
7.38	1.028969
7.381	1.242408
7.382	1.163969
7.383	0.793465
7.384	0.232745
7.385	-0.349761
7.386	-0.785137
7.387	-0.964371
7.388	-0.871078
7.389	-0.575204
7.39	-0.198857
7.391	0.119451
7.392	0.2654
7.393	0.198397
7.394	-0.0215
7.395	-0.256127
7.396	-0.351583
7.397	-0.205874
7.398	0.184713
7.399	0.711802
7.4	1.190504
7.401	1.436415
7.402	1.338925
7.403	0.902552
7.404	0.248062
7.405	-0.431566
7.406	-0.941673
7.407	-1.152146
7.408	-1.037802
7.409	-0.678999
7.41	-0.228033
7.411	0.144854
7.412	0.321066
7.413	0.29039
7.414	0.136723
7.415	-0.083214
7.416	-0.508772
7.417	-1.482707
7.418	-3.200815
7.419	-5.280606
7.42	-6.896598
7.421	-7.409741
7.422	-6.672886
7.423	-4.849488
7.424	-2.231264
7.425	0.777665
7.426	3.599832
7.427	5.514317
7.428	5.999669
7.429	5.187902
7.43	3.800158
7.431	2.520608
7.432	1.581036
7.433	0.913754
7.434	0.443174
7.435	0.180379
7.436	0.1825
7.437	0.488421
7.438	1.056686
7.439	1.736087
7.44	2.304532
7.441	2.549648
7.442	2.341872
7.443	1.681948
7.444	0.713402
7.445	-0.310052
7.446	-1.103174
7.447	-1.458078
7.448	-1.333758
7.449	-0.865019
7.45	-0.284521
7.451	0.182457
7.452	0.400389
7.453	0.369747
7.454	0.203006
7.455	-0.01107
7.456	-0.392217
7.457	-1.284175
7.458	-2.905593
7.459	-4.902093
7.46	-6.453569
7.461	-6.915431
7.462	-6.163008
7.463	-4.39654
7.464	-1.913793
7.465	0.906603
7.466	3.515612
7.467	5.209954
7.468	5.484301
7.469	4.513908
7.47	3.098778
7.471	1.974886
7.472	1.319867
7.473	0.92914
7.474	0.618701
7.475	0.385904
7.476	0.34169
7.477	0.596473
7.478	1.174862
7.479	1.961444
7.48	2.703456
7.481	3.09941
7.482	2.937051
7.483	2.193782
7.484	1.046743
7.485	-0.194529
7.486	-1.197647
7.487	-1.720482
7.488	-1.68581
7.489	-1.200461
7.49	-0.513139
7.491	0.092715
7.492	0.428642
7.493	0.47748
7.494	0.357104
7.495	0.161572
7.496	-0.231088
7.497	-1.165004
7.498	-2.846003
7.499	-4.896892
7.5	-6.461133
7.501	-6.847267
7.502	-5.94469
7.503	-4.06046
7.504	-1.58519
7.505	1.102964
7.506	3.509875
7.507	4.995404
7.508	5.122101
7.509	4.122524
7.51	2.795578
7.511	1.811582
7.512	1.277804
7.513	0.957904
7.514	0.671686
7.515	0.444944
7.516	0.426172
7.517	0.746707
7.518	1.422797
7.519	2.309679
7.52	3.119275
7.521	3.522937
7.522	3.298098
7.523	2.43296
7.524	1.138259
7.525	-0.232278
7.526	-1.314441
7.527	-1.862444
7.528	-1.823454
7.529	-1.333075
7.53	-0.645822
7.531	-0.032738
7.532	0.326632
7.533	0.413598
7.534	0.339543
7.535	0.193684
7.536	-0.149073
7.537	-1.041015
7.538	-2.70161
7.539	-4.759096
7.54	-6.339677
7.541	-6.724384
7.542	-5.802327
7.543	-3.913402
7.544	-1.46962
7.545	1.167574
7.546	3.531264
7.547	4.986703
7.548	5.085504
7.549	4.054529
7.55	2.696146
7.551	1.686073
7.552	1.137047
7.553	0.823768
7.554	0.591632
7.555	0.501815
7.556	0.712449
7.557	1.291641
7.558	2.119944
7.559	2.937992
7.56	3.486017
7.561	3.600803
7.562	3.211645
7.563	2.330813
7.564	1.096225
7.565	-0.215864
7.566	-1.275603
7.567	-1.836713
7.568	-1.833985
7.569	-1.389627
7.57	-0.744578
7.571	-0.155907
7.572	0.208265
7.573	0.332179
7.574	0.318607
7.575	0.238796
7.576	-0.055596
7.577	-0.936351
7.578	-2.625857
7.579	-4.735884
7.58	-6.366224
7.581	-6.774333
7.582	-5.842656
7.583	-3.922331
7.584	-1.437424
7.585	1.240635
7.586	3.623673
7.587	5.053713
7.588	5.082733
7.589	3.964574
7.59	2.53745
7.591	1.505886
7.592	0.993659
7.593	0.760579
7.594	0.608951
7.595	0.541023
7.596	0.676961
7.597	1.111821
7.598	1.818373
7.599	2.626064
7.6	3.276269
7.601	3.518806
7.602	3.204684
7.603	2.346997
7.604	1.128672
7.605	-0.15062
7.606	-1.174749
7.607	-1.72391
7.608	-1.748231
7.609	-1.367755
7.61	-0.805741
7.611	-0.287052
7.612	0.056433
7.613	0.228345
7.614	0.320539
7.615	0.364898
7.616	0.161755
7.617	-0.698387
7.618	-2.443809
7.619	-4.660812
7.62	-6.405552
7.621	-6.890021
7.622	-5.964326
7.623	-3.970998
7.624	-1.357067
7.625	1.451819
7.626	3.907145
7.627	5.32155
7.628	5.259621
7.629	4.012536
7.63	2.461937
7.631	1.350997
7.632	0.829784
7.633	0.665587
7.634	0.642428
7.635	0.717851
7.636	0.95601
7.637	1.406864
7.638	2.026305
7.639	2.667666
7.64	3.135731
7.641	3.255886
7.642	2.927638
7.643	2.164176
7.644	1.10862
7.645	0.00331
7.646	-0.891461
7.647	-1.394587
7.648	-1.469093
7.649	-1.219069
7.65	-0.817757
7.651	-0.424091
7.652	-0.137306
7.653	0.022394
7.654	0.114359
7.655	0.243282
7.656	0.50412
7.657	0.935822
7.658	1.495474
7.659	2.061028
7.66	2.467931
7.661	2.566969
7.662	2.280073
7.663	1.632502
7.664	0.754355
7.665	-0.149939
7.666	-0.867147
7.667	-1.25728
7.668	-1.308526
7.669	-1.119798
7.67	-0.823484
7.671	-0.526055
7.672	-0.294123
7.673	-0.14514
7.674	-0.038081
7.675	0.107781
7.676	0.369725
7.677	0.778178
7.678	1.290863
7.679	1.799114
7.68	2.165599
7.681	2.269966
7.682	2.045645
7.683	1.506175
7.684	0.750308
7.685	-0.063498
7.686	-0.757071
7.687	-1.171066
7.688	-1.211094
7.689	-0.906616
7.69	-0.437402
7.691	-0.053539
7.692	0.093462
7.693	0.054241
7.694	0.00468
7.695	0.079435
7.696	0.296797
7.697	0.616045
7.698	1.005853
7.699	1.424171
7.7	1.767564
7.701	1.897242
7.702	1.726448
7.703	1.274747
7.704	0.650299
7.705	-0.005681
7.706	-0.566546
7.707	-0.944202
7.708	-1.097257
7.709	-1.035573
7.71	-0.820845
7.711	-0.546677
7.712	-0.297193
7.713	-0.111324
7.714	0.024687
7.715	0.155983
7.716	0.327079
7.717	0.566017
7.718	0.879093
7.719	1.227146
7.72	1.510712
7.721	1.611529
7.722	1.462949
7.723	1.086793
7.724	0.57291
7.725	0.030154
7.726	-0.445105
7.727	-0.77775
7.728	-0.923204
7.729	-0.881405
7.73	-0.702191
7.731	-0.467127
7.732	-0.250312
7.733	-0.085289
7.734	0.041359
7.735	0.170455
7.736	0.340637
7.737	0.572429
7.738	0.861653
7.739	1.162423
7.74	1.384951
7.741	1.437497
7.742	1.28072
7.743	0.944452
7.744	0.501003
7.745	0.033381
7.746	-0.376545
7.747	-0.658496
7.748	-0.773922
7.749	-0.729825
7.75	-0.575896
7.751	-0.3825
7.752	-0.207511
7.753	-0.073316
7.754	0.035548
7.755	0.155195
7.756	0.316122
7.757	0.528426
7.758	0.776641
7.759	1.014197
7.76	1.172645
7.761	1.191688
7.762	1.049819
7.763	0.772158
7.764	0.412012
7.765	0.031782
7.766	-0.304115
7.767	-0.540155
7.768	-0.644405
7.769	-0.617703
7.77	-0.496628
7.771	-0.338759
7.772	-0.192228
7.773	-0.074539
7.774	0.02908
7.775	0.149167
7.776	0.307974
7.777	0.507608
7.778	0.727445
7.779	0.923507
7.78	1.040632
7.781	1.036545
7.782	0.902098
7.783	0.66228
7.784	0.360954
7.785	0.051396
7.786	-0.210978
7.787	-0.387339
7.788	-0.467108
7.789	-0.462797
7.79	-0.400376
7.791	-0.30921
7.792	-0.213211
7.793	-0.122734
7.794	-0.029105
7.795	0.087036
7.796	0.238966
7.797	0.424373
7.798	0.620679
7.799	0.78579
7.8	0.873315
7.801	0.853436
7.802	0.724617
7.803	0.510606
7.804	0.249899
7.805	-0.010564
7.806	-0.224468
7.807	-0.361176
7.808	-0.413871
7.809	-0.398512
7.81	-0.342464
7.811	-0.268429
7.812	-0.190068
7.813	-0.112323
7.814	-0.028699
7.815	0.07218
7.816	0.195052
7.817	0.335245
7.818	0.482275
7.819	0.628285
7.82	0.77418
7.821	0.911088
7.822	0.983335
7.823	0.892074
7.824	0.584088
