time_s	mv
0.0	0.878826
0.001	1.189973
0.002	1.365681
0.003	1.529893
0.004	1.781973
0.005	2.039873
0.006	2.035486
0.007	1.678523
0.008	1.382516
0.009	1.546234
0.01	1.948018
0.011	2.196656
0.012	2.287098
0.013	2.393501
0.014	2.559119
0.015	2.696388
0.016	2.694361
0.017	2.47396
0.018	2.041044
0.019	1.571893
0.02	1.314892
0.021	1.320189
0.022	1.423777
0.023	1.507676
0.024	1.594791
0.025	1.67358
0.026	1.580032
0.027	1.270222
0.028	1.102228
0.029	1.369961
0.03	1.812469
0.031	2.079014
0.032	2.194972
0.033	2.316245
0.034	2.457929
0.035	2.532835
0.036	2.465635
0.037	2.224909
0.038	1.834928
0.039	1.443204
0.04	1.252129
0.041	1.286798
0.042	1.385087
0.043	1.447483
0.044	1.523053
0.045	1.617757
0.046	1.561023
0.047	1.28191
0.048	1.11548
0.049	1.35988
0.05	1.77597
0.051	2.026722
0.052	2.134614
0.053	2.239901
0.054	2.34205
0.055	2.35597
0.056	2.231681
0.057	1.972883
0.058	1.62233
0.059	1.310387
0.06	1.196857
0.061	1.270835
0.062	1.363105
0.063	1.394946
0.064	1.448636
0.065	1.556918
0.066	1.55868
0.067	1.371771
0.068	1.29712
0.069	1.581903
0.07	1.95167
0.071	2.088777
0.072	2.073696
0.073	2.086406
0.074	2.128536
0.075	2.1046
0.076	1.963758
0.077	1.716309
0.078	1.406976
0.079	1.157253
0.08	1.106016
0.081	1.217239
0.082	1.311355
0.083	1.324836
0.084	1.368515
0.085	1.492444
0.086	1.523038
0.087	1.339756
0.088	1.216766
0.089	1.425657
0.09	1.75072
0.091	1.903888
0.092	1.936655
0.093	1.98101
0.094	2.020927
0.095	1.981246
0.096	1.848743
0.097	1.65878
0.098	1.443338
0.099	1.273957
0.1	1.236317
0.101	1.283114
0.102	1.275038
0.103	1.20499
0.104	1.225671
0.105	1.414755
0.106	1.609045
0.107	1.638828
0.108	1.652588
0.109	1.827375
0.11	1.986821
0.111	1.946556
0.112	1.82256
0.113	1.767719
0.114	1.770316
0.115	1.762527
0.116	1.747487
0.117	1.738954
0.118	1.664783
0.119	1.4963
0.12	1.341677
0.121	1.252357
0.122	1.152325
0.123	1.046147
0.124	1.078492
0.125	1.311847
0.126	1.555976
0.127	1.603041
0.128	1.576282
0.129	1.670405
0.13	1.764229
0.131	1.717544
0.132	1.640775
0.133	1.644596
0.134	1.672968
0.135	1.625065
0.136	1.486483
0.137	1.309252
0.138	1.137064
0.139	1.02519
0.14	1.028912
0.141	1.090279
0.142	1.084732
0.143	1.028446
0.144	1.083751
0.145	1.303218
0.146	1.466901
0.147	1.381847
0.148	1.274889
0.149	1.422955
0.15	1.641998
0.151	1.672214
0.152	1.588538
0.153	1.542925
0.154	1.535788
0.155	1.525336
0.156	1.554147
0.157	1.647637
0.158	1.66954
0.159	1.509581
0.16	1.283365
0.161	1.113914
0.162	0.974418
0.163	0.880519
0.164	0.958676
0.165	1.220947
0.166	1.410653
0.167	1.307243
0.168	1.13059
0.169	1.187133
0.17	1.355736
0.171	1.422188
0.172	1.439287
0.173	1.488876
0.174	1.504738
0.175	1.396701
0.176	1.183939
0.177	0.964174
0.178	0.803153
0.179	0.734059
0.18	0.778584
0.181	0.870573
0.182	0.898433
0.183	0.888933
0.184	1.001106
0.185	1.27064
0.186	1.450948
0.187	1.328952
0.188	1.136544
0.189	1.188865
0.19	1.362493
0.191	1.430836
0.192	1.432575
0.193	1.44425
0.194	1.410231
0.195	1.274309
0.196	1.109277
0.197	1.031532
0.198	1.029586
0.199	1.027131
0.2	1.021147
0.201	0.998067
0.202	0.897351
0.203	0.75693
0.204	0.728723
0.205	0.887315
0.206	1.091661
0.207	1.193698
0.208	1.312748
0.209	1.540474
0.21	1.638472
0.211	1.460513
0.212	1.233989
0.213	1.185066
0.214	1.25766
0.215	1.257548
0.216	1.087541
0.217	0.79936
0.218	0.516252
0.219	0.393163
0.22	0.527688
0.221	0.799305
0.222	0.952513
0.223	0.911952
0.224	0.856483
0.225	0.928266
0.226	0.999424
0.227	0.924678
0.228	0.901931
0.229	1.122568
0.23	1.343397
0.231	1.327168
0.232	1.222223
0.233	1.218764
0.234	1.263713
0.235	1.197522
0.236	0.970041
0.237	0.668871
0.238	0.42187
0.239	0.355237
0.24	0.527633
0.241	0.798078
0.242	0.918524
0.243	0.839827
0.244	0.776196
0.245	0.909857
0.246	1.141546
0.247	1.290787
0.248	1.429863
0.249	1.639381
0.25	1.698484
0.251	1.476957
0.252	1.204792
0.253	1.096864
0.254	1.085288
0.255	0.986004
0.256	0.742538
0.257	0.457329
0.258	0.273459
0.259	0.307397
0.26	0.577029
0.261	0.896394
0.262	1.001282
0.263	0.856035
0.264	0.686968
0.265	0.649918
0.266	0.579085
0.267	0.290295
0.268	0.039843
0.269	0.161329
0.27	0.480002
0.271	0.685167
0.272	0.815584
0.273	1.007207
0.274	1.214463
0.275	1.342346
0.276	1.429255
0.277	1.51909
0.278	1.468715
0.279	1.217154
0.28	1.009666
0.281	0.985451
0.282	0.953434
0.283	0.785766
0.284	0.629858
0.285	0.617972
0.286	0.589789
0.287	0.362857
0.288	0.178933
0.289	0.344327
0.29	0.655178
0.291	0.795478
0.292	0.833502
0.293	0.939714
0.294	1.086037
0.295	1.197118
0.296	1.35025
0.297	1.600687
0.298	1.724207
0.299	1.543901
0.3	1.276168
0.301	1.117961
0.302	0.944997
0.303	0.673106
0.304	0.470872
0.305	0.471372
0.306	0.494131
0.307	0.31649
0.308	0.141771
0.309	0.274076
0.31	0.545942
0.311	0.67615
0.312	0.731485
0.313	0.855101
0.314	0.997978
0.315	1.084028
0.316	1.203276
0.317	1.424228
0.318	1.532901
0.319	1.362803
0.32	1.131059
0.321	1.017892
0.322	0.880369
0.323	0.631723
0.324	0.450973
0.325	0.473584
0.326	0.491346
0.327	0.234651
0.328	-0.084078
0.329	-0.049474
0.33	0.263221
0.331	0.518543
0.332	0.668611
0.333	0.815345
0.334	0.940945
0.335	1.023186
0.336	1.200124
0.337	1.539078
0.338	1.747119
0.339	1.576265
0.34	1.252862
0.341	1.024464
0.342	0.79707
0.343	0.502637
0.344	0.330932
0.345	0.438977
0.346	0.644705
0.347	0.650151
0.348	0.523895
0.349	0.516608
0.35	0.574809
0.351	0.56405
0.352	0.582677
0.353	0.715833
0.354	0.850408
0.355	0.872699
0.356	0.865146
0.357	0.940712
0.358	0.984306
0.359	0.882248
0.36	0.784708
0.361	0.778903
0.362	0.700268
0.363	0.490966
0.364	0.360701
0.365	0.46096
0.366	0.590164
0.367	0.484223
0.368	0.324583
0.369	0.406446
0.37	0.547385
0.371	0.493167
0.372	0.40931
0.373	0.530577
0.374	0.795155
0.375	1.009408
0.376	1.123483
0.377	1.161718
0.378	1.035498
0.379	0.766539
0.38	0.639777
0.381	0.748452
0.382	0.799192
0.383	0.601702
0.384	0.341594
0.385	0.248608
0.386	0.235834
0.387	0.119673
0.388	0.068124
0.389	0.284365
0.39	0.510503
0.391	0.483084
0.392	0.389284
0.393	0.481439
0.394	0.713023
0.395	0.917577
0.396	1.083668
0.397	1.238993
0.398	1.213588
0.399	0.934609
0.4	0.700384
0.401	0.697912
0.402	0.697744
0.403	0.510736
0.404	0.28954
0.405	0.219924
0.406	0.164411
0.407	-0.100015
0.408	-0.368737
0.409	-0.284582
0.41	0.039735
0.411	0.301167
0.412	0.495347
0.413	0.697618
0.414	0.808207
0.415	0.749776
0.416	0.681081
0.417	0.775859
0.418	0.887365
0.419	0.817255
0.42	0.692361
0.421	0.645499
0.422	0.549754
0.423	0.331937
0.424	0.159231
0.425	0.191001
0.426	0.31373
0.427	0.333313
0.428	0.358935
0.429	0.545256
0.43	0.679069
0.431	0.566939
0.432	0.409166
0.433	0.439277
0.434	0.596817
0.435	0.714049
0.436	0.797287
0.437	0.906803
0.438	0.893639
0.439	0.674408
0.44	0.514939
0.441	0.572584
0.442	0.606487
0.443	0.431175
0.444	0.21494
0.445	0.176283
0.446	0.218584
0.447	0.113837
0.448	-0.024701
0.449	0.065938
0.45	0.270226
0.451	0.340441
0.452	0.347152
0.453	0.455097
0.454	0.604169
0.455	0.64612
0.456	0.601145
0.457	0.56645
0.458	0.480129
0.459	0.319923
0.46	0.30335
0.461	0.492089
0.462	0.600338
0.463	0.451105
0.464	0.236876
0.465	0.195179
0.466	0.23605
0.467	0.124931
0.468	-0.030592
0.469	0.045713
0.47	0.255293
0.471	0.342441
0.472	0.352155
0.473	0.437418
0.474	0.557359
0.475	0.609129
0.476	0.662177
0.477	0.81181
0.478	0.899128
0.479	0.782903
0.48	0.659996
0.481	0.668497
0.482	0.611541
0.483	0.360992
0.484	0.112962
0.485	0.086059
0.486	0.168728
0.487	0.102776
0.488	-0.029779
0.489	0.032657
0.49	0.203719
0.491	0.258061
0.492	0.256219
0.493	0.343721
0.494	0.470185
0.495	0.528122
0.496	0.577483
0.497	0.6965
0.498	0.722131
0.499	0.5452
0.5	0.409964
0.501	0.469723
0.502	0.500085
0.503	0.334699
0.504	0.148439
0.505	0.150218
0.506	0.205187
0.507	0.018865
0.508	-0.307262
0.509	-0.386205
0.51	-0.190993
0.511	0.012455
0.512	0.159501
0.513	0.328407
0.514	0.483005
0.515	0.568234
0.516	0.69265
0.517	0.931012
0.518	1.041079
0.519	0.834602
0.52	0.575099
0.521	0.501753
0.522	0.449026
0.523	0.256693
0.524	0.079418
0.525	0.113617
0.526	0.239773
0.527	0.192013
0.528	0.047904
0.529	0.072896
0.53	0.191209
0.531	0.194625
0.532	0.158762
0.533	0.232084
0.534	0.358609
0.535	0.423308
0.536	0.478157
0.537	0.5991
0.538	0.625876
0.539	0.442824
0.54	0.287586
0.541	0.327691
0.542	0.360893
0.543	0.226262
0.544	0.085098
0.545	0.132573
0.546	0.238968
0.547	0.128863
0.548	-0.109606
0.549	-0.16678
0.55	-0.063128
0.551	0.009682
0.552	0.086439
0.553	0.25419
0.554	0.416805
0.555	0.442926
0.556	0.382618
0.557	0.354998
0.558	0.302557
0.559	0.171656
0.56	0.137993
0.561	0.273795
0.562	0.353687
0.563	0.240565
0.564	0.109639
0.565	0.153953
0.566	0.245473
0.567	0.126565
0.568	-0.095148
0.569	-0.116665
0.57	0.010986
0.571	0.073039
0.572	0.107544
0.573	0.223701
0.574	0.350147
0.575	0.378669
0.576	0.382736
0.577	0.473452
0.578	0.516927
0.579	0.379449
0.58	0.25172
0.581	0.286574
0.582	0.314083
0.583	0.199562
0.584	0.088064
0.585	0.133542
0.586	0.169643
0.587	-0.086938
0.588	-0.494813
0.589	-0.628646
0.59	-0.43668
0.591	-0.179669
0.592	0.049655
0.593	0.278533
0.594	0.421967
0.595	0.381708
0.596	0.241155
0.597	0.150143
0.598	0.071111
0.599	-0.04867
0.6	-0.045422
0.601	0.14162
0.602	0.279125
0.603	0.217152
0.604	0.12002
0.605	0.193957
0.606	0.346987
0.607	0.325447
0.608	0.165402
0.609	0.110039
0.61	0.152687
0.611	0.150629
0.612	0.151221
0.613	0.2346
0.614	0.309299
0.615	0.271416
0.616	0.219539
0.617	0.293509
0.618	0.365153
0.619	0.275847
0.62	0.186223
0.621	0.238542
0.622	0.268372
0.623	0.147997
0.624	0.03325
0.625	0.110578
0.626	0.271189
0.627	0.252315
0.628	0.092596
0.629	0.052107
0.63	0.131374
0.631	0.163065
0.632	0.162224
0.633	0.20331
0.634	0.223926
0.635	0.181158
0.636	0.252764
0.637	0.610367
0.638	1.013834
0.639	1.087126
0.64	0.877393
0.641	0.62441
0.642	0.343549
0.643	0.017746
0.644	-0.180499
0.645	-0.088175
0.646	0.181192
0.647	0.386214
0.648	0.533359
0.649	0.72319
0.65	0.785382
0.651	0.559812
0.652	0.225195
0.653	0.024265
0.654	-0.02017
0.655	0.024873
0.656	0.232956
0.657	0.693077
0.658	1.170804
0.659	1.308038
0.66	1.126503
0.661	0.853259
0.662	0.498012
0.663	0.019324
0.664	-0.399784
0.665	-0.52281
0.666	-0.355971
0.667	-0.05199
0.668	0.380907
0.669	0.875304
0.67	1.045972
0.671	0.670567
0.672	0.077976
0.673	-0.287002
0.674	-0.336758
0.675	-0.216908
0.676	0.044078
0.677	0.477192
0.678	0.856525
0.679	0.911002
0.68	0.7457
0.681	0.571949
0.682	0.332963
0.683	-0.04196
0.684	-0.370941
0.685	-0.441848
0.686	-0.320376
0.687	-0.20964
0.688	-0.066999
0.689	0.23205
0.69	0.469087
0.691	0.368678
0.692	0.062782
0.693	-0.148308
0.694	-0.205768
0.695	-0.220864
0.696	-0.191773
0.697	-0.053452
0.698	0.07083
0.699	0.053091
0.7	0.040545
0.701	0.139638
0.702	0.161226
0.703	-0.029736
0.704	-0.255293
0.705	-0.279763
0.706	-0.149145
0.707	-0.070587
0.708	-0.008638
0.709	0.189281
0.71	0.366624
0.711	0.289147
0.712	0.063308
0.713	-0.073206
0.714	-0.09952
0.715	-0.136325
0.716	-0.197832
0.717	-0.224571
0.718	-0.275227
0.719	-0.375591
0.72	-0.343869
0.721	-0.117284
0.722	0.054447
0.723	-0.00742
0.724	-0.137108
0.725	-0.083601
0.726	0.110609
0.727	0.178943
0.728	0.082334
0.729	0.044631
0.73	0.100587
0.731	0.083649
0.732	-0.004234
0.733	-0.034415
0.734	-0.012589
0.735	-0.033137
0.736	-0.08229
0.737	-0.094006
0.738	-0.134061
0.739	-0.240847
0.74	-0.243333
0.741	-0.071268
0.742	0.052255
0.743	-0.028855
0.744	-0.147142
0.745	-0.06526
0.746	0.156354
0.747	0.233611
0.748	0.119424
0.749	0.047754
0.75	0.073421
0.751	0.041848
0.752	-0.049442
0.753	-0.081179
0.754	-0.052258
0.755	-0.028544
0.756	0.030843
0.757	0.169808
0.758	0.226815
0.759	0.077477
0.76	-0.074577
0.761	-0.050187
0.762	-0.003914
0.763	-0.09331
0.764	-0.19157
0.765	-0.115694
0.766	0.026439
0.767	-0.042937
0.768	-0.279707
0.769	-0.363266
0.77	-0.252998
0.771	-0.164423
0.772	-0.140274
0.773	-0.089027
0.774	-0.021179
0.775	0.008716
0.776	0.05464
0.777	0.164803
0.778	0.184315
0.779	0.004796
0.78	-0.15492
0.781	-0.114687
0.782	-0.03922
0.783	-0.09759
0.784	-0.173631
0.785	-0.091229
0.786	0.044291
0.787	-0.029213
0.788	-0.244752
0.789	-0.273121
0.79	-0.101172
0.791	0.003641
0.792	-0.02584
0.793	-0.065547
0.794	-0.073757
0.795	-0.079627
0.796	-0.031794
0.797	0.108192
0.798	0.174439
0.799	0.038873
0.8	-0.104927
0.801	-0.08691
0.802	-0.054899
0.803	-0.15141
0.804	-0.240344
0.805	-0.125184
0.806	0.108237
0.807	0.170391
0.808	0.024926
0.809	-0.071497
0.81	-0.036871
0.811	-0.021444
0.812	-0.062136
0.813	-0.079872
0.814	-0.088491
0.815	-0.165015
0.816	-0.293867
0.817	-0.393651
0.818	-0.464546
0.819	-0.511724
0.82	-0.428269
0.821	-0.209001
0.822	-0.064372
0.823	-0.115323
0.824	-0.19416
0.825	-0.091371
0.826	0.096291
0.827	0.058427
0.828	-0.219096
0.829	-0.380862
0.83	-0.274837
0.831	-0.118294
0.832	-0.064859
0.833	-0.073921
0.834	-0.110243
0.835	-0.156645
0.836	-0.114071
0.837	0.069899
0.838	0.204575
0.839	0.118456
0.84	-0.023316
0.841	-0.044096
0.842	-0.060243
0.843	-0.185728
0.844	-0.276817
0.845	-0.152959
0.846	0.062423
0.847	0.030442
0.848	-0.286778
0.849	-0.521972
0.85	-0.465811
0.851	-0.280883
0.852	-0.128716
0.853	-0.036658
0.854	-0.041967
0.855	-0.18273
0.856	-0.405429
0.857	-0.607289
0.858	-0.751598
0.859	-0.801877
0.86	-0.632158
0.861	-0.253598
0.862	0.043132
0.863	0.030508
0.864	-0.155305
0.865	-0.24057
0.866	-0.225259
0.867	-0.353847
0.868	-0.619756
0.869	-0.676224
0.87	-0.435439
0.871	-0.214902
0.872	-0.180508
0.873	-0.19405
0.874	-0.146022
0.875	-0.064578
0.876	0.008356
0.877	0.026184
0.878	-0.107958
0.879	-0.351696
0.88	-0.431201
0.881	-0.232026
0.882	-0.022389
0.883	-0.054802
0.884	-0.218686
0.885	-0.252055
0.886	-0.147355
0.887	-0.136987
0.888	-0.247062
0.889	-0.23289
0.89	-0.074012
0.891	-0.020864
0.892	-0.126835
0.893	-0.213911
0.894	-0.201846
0.895	-0.179819
0.896	-0.250999
0.897	-0.441327
0.898	-0.697426
0.899	-0.863862
0.9	-0.752237
0.901	-0.393186
0.902	-0.093959
0.903	-0.076887
0.904	-0.203357
0.905	-0.202522
0.906	-0.077808
0.907	-0.085462
0.908	-0.26514
0.909	-0.348001
0.91	-0.25562
0.911	-0.193014
0.912	-0.224661
0.913	-0.226179
0.914	-0.158936
0.915	-0.11755
0.916	-0.196416
0.917	-0.416358
0.918	-0.715087
0.919	-0.920047
0.92	-0.827125
0.921	-0.461471
0.922	-0.133853
0.923	-0.073238
0.924	-0.152769
0.925	-0.124874
0.926	-0.028906
0.927	-0.152897
0.928	-0.50588
0.929	-0.700254
0.93	-0.569432
0.931	-0.371715
0.932	-0.283702
0.933	-0.229742
0.934	-0.14229
0.935	-0.041462
0.936	0.052085
0.937	0.095159
0.938	-0.024136
0.939	-0.290983
0.94	-0.441708
0.941	-0.32335
0.942	-0.145848
0.943	-0.136904
0.944	-0.210644
0.945	-0.163394
0.946	-0.062422
0.947	-0.206123
0.948	-0.59932
0.949	-0.835311
0.95	-0.71644
0.951	-0.479531
0.952	-0.314105
0.953	-0.185534
0.954	-0.072785
0.955	-0.043225
0.956	-0.153322
0.957	-0.391034
0.958	-0.680617
0.959	-0.87188
0.96	-0.791652
0.961	-0.459077
0.962	-0.150565
0.963	-0.079051
0.964	-0.136488
0.965	-0.104095
0.966	-0.034439
0.967	-0.204946
0.968	-0.595685
0.969	-0.786832
0.97	-0.599531
0.971	-0.321769
0.972	-0.180154
0.973	-0.120561
0.974	-0.070654
0.975	-0.05667
0.976	-0.112349
0.977	-0.241734
0.978	-0.446038
0.979	-0.642799
0.98	-0.637684
0.981	-0.386774
0.982	-0.133445
0.983	-0.088116
0.984	-0.147557
0.985	-0.09133
0.986	0.026738
0.987	-0.116776
0.988	-0.576604
0.989	-0.905046
0.99	-0.788526
0.991	-0.460478
0.992	-0.216378
0.993	-0.078623
0.994	-0.011543
0.995	-0.053217
0.996	-0.230719
0.997	-0.497701
0.998	-0.757328
0.999	-0.879341
1.0	-0.739859
1.001	-0.388796
1.002	-0.094886
1.003	-0.050833
1.004	-0.131493
1.005	-0.090871
1.006	0.054479
1.007	0.014978
1.008	-0.289309
1.009	-0.518866
1.01	-0.44513
1.011	-0.256741
1.012	-0.147619
1.013	-0.095375
1.014	-0.061758
1.015	-0.062646
1.016	-0.081383
1.017	-0.097072
1.018	-0.1724
1.019	-0.312614
1.02	-0.338876
1.021	-0.172086
1.022	-0.0233
1.023	-0.074476
1.024	-0.200036
1.025	-0.164164
1.026	0.004972
1.027	0.010192
1.028	-0.238946
1.029	-0.42262
1.03	-0.336207
1.031	-0.177806
1.032	-0.126053
1.033	-0.132879
1.034	-0.136953
1.035	-0.126863
1.036	-0.052135
1.037	0.103421
1.038	0.185175
1.039	0.077541
1.04	-0.050909
1.041	-0.041519
1.042	-0.026905
1.043	-0.153769
1.044	-0.297978
1.045	-0.243597
1.046	-0.043741
1.047	-0.020171
1.048	-0.278311
1.049	-0.489809
1.05	-0.421123
1.051	-0.250721
1.052	-0.169056
1.053	-0.154606
1.054	-0.158246
1.055	-0.155231
1.056	-0.058328
1.057	0.187496
1.058	0.4126
1.059	0.401226
1.06	0.233208
1.061	0.103836
1.062	-0.014943
1.063	-0.212439
1.064	-0.365914
1.065	-0.276085
1.066	0.003554
1.067	0.166817
1.068	0.085424
1.069	-0.020876
1.07	-0.024506
1.071	-0.081031
1.072	-0.251876
1.073	-0.375534
1.074	-0.334762
1.075	-0.172121
1.076	0.033588
1.077	0.213062
1.078	0.231554
1.079	0.033665
1.08	-0.155076
1.081	-0.116703
1.082	-0.00205
1.083	-0.070656
1.084	-0.276745
1.085	-0.377077
1.086	-0.327729
1.087	-0.340117
1.088	-0.465109
1.089	-0.449393
1.09	-0.23823
1.091	-0.125681
1.092	-0.223913
1.093	-0.321591
1.094	-0.268879
1.095	-0.114333
1.096	0.06555
1.097	0.220947
1.098	0.233892
1.099	0.041745
1.1	-0.151515
1.101	-0.131271
1.102	-0.027861
1.103	-0.081526
1.104	-0.251928
1.105	-0.324211
1.106	-0.282686
1.107	-0.343977
1.108	-0.531204
1.109	-0.543798
1.11	-0.293749
1.111	-0.086414
1.112	-0.093337
1.113	-0.17091
1.114	-0.189946
1.115	-0.156591
1.116	-0.069459
1.117	0.08889
1.118	0.205601
1.119	0.140833
1.12	-0.004799
1.121	-0.047076
1.122	-0.048994
1.123	-0.165265
1.124	-0.315994
1.125	-0.276871
1.126	-0.022629
1.127	0.201284
1.128	0.235552
1.129	0.219674
1.13	0.246224
1.131	0.171893
1.132	-0.040309
1.133	-0.219233
1.134	-0.272294
1.135	-0.265114
1.136	-0.251202
1.137	-0.213995
1.138	-0.188161
1.139	-0.244344
1.14	-0.306209
1.141	-0.248417
1.142	-0.157895
1.143	-0.193185
1.144	-0.281769
1.145	-0.210506
1.146	0.039203
1.147	0.22923
1.148	0.224969
1.149	0.192359
1.15	0.228527
1.151	0.173733
1.152	-0.025833
1.153	-0.204427
1.154	-0.265921
1.155	-0.270852
1.156	-0.269909
1.157	-0.240417
1.158	-0.207082
1.159	-0.242799
1.16	-0.290067
1.161	-0.237298
1.162	-0.162109
1.163	-0.201704
1.164	-0.278134
1.165	-0.194571
1.166	0.052417
1.167	0.229503
1.168	0.219698
1.169	0.19464
1.17	0.239382
1.171	0.186709
1.172	-0.01033
1.173	-0.18136
1.174	-0.2442
1.175	-0.296687
1.176	-0.436525
1.177	-0.637568
1.178	-0.806755
1.179	-0.864156
1.18	-0.742396
1.181	-0.465318
1.182	-0.222685
1.183	-0.170485
1.184	-0.211632
1.185	-0.133379
1.186	0.078825
1.187	0.206347
1.188	0.154242
1.189	0.119081
1.19	0.198105
1.191	0.202617
1.192	0.043367
1.193	-0.12976
1.194	-0.216648
1.195	-0.269514
1.196	-0.32837
1.197	-0.347233
1.198	-0.321122
1.199	-0.317964
1.2	-0.312867
1.201	-0.228296
1.202	-0.140904
1.203	-0.170907
1.204	-0.241831
1.205	-0.171853
1.206	0.038813
1.207	0.176258
1.208	0.152852
1.209	0.158063
1.21	0.269224
1.211	0.279279
1.212	0.096771
1.213	-0.114611
1.214	-0.240008
1.215	-0.323346
1.216	-0.396306
1.217	-0.401825
1.218	-0.335387
1.219	-0.289664
1.22	-0.269013
1.221	-0.197663
1.222	-0.130141
1.223	-0.169341
1.224	-0.239223
1.225	-0.175079
1.226	-0.011088
1.227	-0.001422
1.228	-0.221198
1.229	-0.36281
1.23	-0.226522
1.231	-0.037522
1.232	-0.006907
1.233	-0.069788
1.234	-0.140961
1.235	-0.236043
1.236	-0.338874
1.237	-0.360052
1.238	-0.290484
1.239	-0.236743
1.24	-0.2167
1.241	-0.159188
1.242	-0.115857
1.243	-0.180682
1.244	-0.259247
1.245	-0.147624
1.246	0.179407
1.247	0.482809
1.248	0.565974
1.249	0.537973
1.25	0.52725
1.251	0.422954
1.252	0.16769
1.253	-0.092718
1.254	-0.26231
1.255	-0.381243
1.256	-0.463374
1.257	-0.44105
1.258	-0.323699
1.259	-0.237333
1.26	-0.212064
1.261	-0.171949
1.262	-0.150075
1.263	-0.221295
1.264	-0.283507
1.265	-0.147707
1.266	0.165449
1.267	0.355779
1.268	0.226068
1.269	0.011174
1.27	-0.012999
1.271	0.045508
1.272	0.00924
1.273	-0.08524
1.274	-0.178666
1.275	-0.289933
1.276	-0.394912
1.277	-0.402916
1.278	-0.3138
1.279	-0.240599
1.28	-0.195638
1.281	-0.095376
1.282	-0.000154
1.283	-0.051595
1.284	-0.200687
1.285	-0.235325
1.286	-0.078855
1.287	0.083175
1.288	0.104948
1.289	0.138538
1.29	0.273474
1.291	0.272001
1.292	0.019847
1.293	-0.24686
1.294	-0.325142
1.295	-0.248578
1.296	-0.105207
1.297	0.079599
1.298	0.219073
1.299	0.163754
1.3	-0.024768
1.301	-0.112427
1.302	-0.086942
1.303	-0.128457
1.304	-0.243634
1.305	-0.266174
1.306	-0.168935
1.307	-0.142787
1.308	-0.250401
1.309	-0.252749
1.31	-0.06339
1.311	0.040485
1.312	-0.078474
1.313	-0.219536
1.314	-0.228608
1.315	-0.186221
1.316	-0.231532
1.317	-0.397865
1.318	-0.626923
1.319	-0.813023
1.32	-0.802312
1.321	-0.541758
1.322	-0.234948
1.323	-0.120145
1.324	-0.1553
1.325	-0.111399
1.326	0.076145
1.327	0.191461
1.328	0.085581
1.329	-0.036823
1.33	0.002812
1.331	0.033056
1.332	-0.078396
1.333	-0.1918
1.334	-0.198202
1.335	-0.167467
1.336	-0.175216
1.337	-0.179377
1.338	-0.144698
1.339	-0.156143
1.34	-0.224797
1.341	-0.218622
1.342	-0.145107
1.343	-0.14842
1.344	-0.2062
1.345	-0.143318
1.346	0.067294
1.347	0.204136
1.348	0.129731
1.349	0.049805
1.35	0.123177
1.351	0.155047
1.352	0.010662
1.353	-0.149661
1.354	-0.199023
1.355	-0.213832
1.356	-0.297247
1.357	-0.430381
1.358	-0.548607
1.359	-0.63863
1.36	-0.642347
1.361	-0.476757
1.362	-0.246136
1.363	-0.144648
1.364	-0.152879
1.365	-0.080078
1.366	0.115304
1.367	0.215684
1.368	0.083571
1.369	-0.059009
1.37	-0.012296
1.371	0.059595
1.372	0.003887
1.373	-0.071484
1.374	-0.08249
1.375	-0.119923
1.376	-0.286583
1.377	-0.556785
1.378	-0.820131
1.379	-0.965076
1.38	-0.883631
1.381	-0.570241
1.382	-0.233746
1.383	-0.0937
1.384	-0.102089
1.385	-0.037505
1.386	0.159846
1.387	0.278424
1.388	0.176189
1.389	0.064869
1.39	0.130527
1.391	0.194522
1.392	0.100115
1.393	-0.034918
1.394	-0.109179
1.395	-0.182808
1.396	-0.303036
1.397	-0.387142
1.398	-0.370328
1.399	-0.342047
1.4	-0.345124
1.401	-0.277578
1.402	-0.157008
1.403	-0.124673
1.404	-0.154058
1.405	-0.072876
1.406	0.12178
1.407	0.161169
1.408	-0.101717
1.409	-0.35407
1.41	-0.292538
1.411	-0.096869
1.412	-0.015875
1.413	-0.016574
1.414	-0.034085
1.415	-0.115179
1.416	-0.268013
1.417	-0.375919
1.418	-0.36108
1.419	-0.320143
1.42	-0.312362
1.421	-0.248429
1.422	-0.144295
1.423	-0.126416
1.424	-0.153695
1.425	-0.049384
1.426	0.184511
1.427	0.269299
1.428	0.050915
1.429	-0.156948
1.43	-0.05952
1.431	0.131889
1.432	0.147987
1.433	0.048349
1.434	-0.055091
1.435	-0.186766
1.436	-0.357577
1.437	-0.457279
1.438	-0.4122
1.439	-0.3297
1.44	-0.291426
1.441	-0.226396
1.442	-0.14948
1.443	-0.179386
1.444	-0.278751
1.445	-0.272751
1.446	-0.12725
1.447	-0.044171
1.448	-0.130771
1.449	-0.140802
1.45	0.06834
1.451	0.197777
1.452	0.054425
1.453	-0.133111
1.454	-0.154097
1.455	-0.092628
1.456	-0.135514
1.457	-0.353406
1.458	-0.685522
1.459	-0.976459
1.46	-0.99995
1.461	-0.668199
1.462	-0.230784
1.463	-0.020444
1.464	-0.051871
1.465	-0.076532
1.466	0.022249
1.467	0.062244
1.468	-0.081007
1.469	-0.161849
1.47	-0.008012
1.471	0.114177
1.472	0.010124
1.473	-0.13273
1.474	-0.142146
1.475	-0.084724
1.476	-0.057312
1.477	-0.020215
1.478	0.05174
1.479	0.028168
1.48	-0.112635
1.481	-0.168267
1.482	-0.099068
1.483	-0.092767
1.484	-0.177015
1.485	-0.1634
1.486	0.023749
1.487	0.19097
1.488	0.181906
1.489	0.151712
1.49	0.219068
1.491	0.199066
1.492	0.012648
1.493	-0.132095
1.494	-0.115839
1.495	-0.071144
1.496	-0.157356
1.497	-0.37117
1.498	-0.616271
1.499	-0.815892
1.5	-0.847016
1.501	-0.607252
1.502	-0.254636
1.503	-0.066463
1.504	-0.061586
1.505	-0.029498
1.506	0.101244
1.507	0.116515
1.508	-0.108004
1.509	-0.287204
1.51	-0.186734
1.511	-0.026194
1.512	-0.009938
1.513	-0.015842
1.514	0.051658
1.515	0.062248
1.516	-0.13978
1.517	-0.538047
1.518	-0.970697
1.519	-1.241461
1.52	-1.172801
1.521	-0.753437
1.522	-0.265276
1.523	-0.023278
1.524	-0.011497
1.525	0.048025
1.526	0.303446
1.527	0.561868
1.528	0.583755
1.529	0.472753
1.53	0.419766
1.531	0.330356
1.532	0.124823
1.533	-0.039127
1.534	-0.066465
1.535	-0.037266
1.536	0.032442
1.537	0.269732
1.538	0.633303
1.539	0.776803
1.54	0.565363
1.541	0.310581
1.542	0.196039
1.543	0.068928
1.544	-0.123738
1.545	-0.212538
1.546	-0.125037
1.547	-0.053209
1.548	-0.130451
1.549	-0.145627
1.55	0.028741
1.551	0.118957
1.552	-0.028142
1.553	-0.180084
1.554	-0.156913
1.555	-0.033514
1.556	0.132745
1.557	0.462346
1.558	0.943232
1.559	1.199353
1.56	1.00293
1.561	0.62934
1.562	0.321197
1.563	0.008751
1.564	-0.308608
1.565	-0.44075
1.566	-0.298764
1.567	-0.052257
1.568	0.135949
1.569	0.339911
1.57	0.545325
1.571	0.479761
1.572	0.101425
1.573	-0.253269
1.574	-0.35928
1.575	-0.295619
1.576	-0.12356
1.577	0.308823
1.578	1.003109
1.579	1.492364
1.58	1.403267
1.581	0.960228
1.582	0.478619
1.583	-0.00763
1.584	-0.437407
1.585	-0.620399
1.586	-0.517823
1.587	-0.362032
1.588	-0.3196
1.589	-0.215228
1.59	0.044633
1.591	0.16398
1.592	-0.012982
1.593	-0.23175
1.594	-0.294346
1.595	-0.294798
1.596	-0.325512
1.597	-0.240673
1.598	0.081105
1.599	0.400259
1.6	0.460729
1.601	0.371989
1.602	0.252131
1.603	0.021466
1.604	-0.274802
1.605	-0.42055
1.606	-0.365783
1.607	-0.362565
1.608	-0.562289
1.609	-0.66378
1.61	-0.423954
1.611	-0.131365
1.612	-0.068516
1.613	-0.110273
1.614	-0.105299
1.615	-0.102409
1.616	-0.11493
1.617	0.020895
1.618	0.348505
1.619	0.567904
1.62	0.486121
1.621	0.315491
1.622	0.202492
1.623	0.032166
1.624	-0.198434
1.625	-0.315908
1.626	-0.305401
1.627	-0.424228
1.628	-0.751279
1.629	-0.86815
1.63	-0.526815
1.631	-0.150396
1.632	-0.097089
1.633	-0.16406
1.634	-0.102043
1.635	0.026127
1.636	0.077799
1.637	0.076584
1.638	0.072897
1.639	-0.024827
1.64	-0.174108
1.641	-0.118946
1.642	0.121819
1.643	0.211402
1.644	0.030933
1.645	-0.20218
1.646	-0.339762
1.647	-0.533772
1.648	-0.860102
1.649	-0.960729
1.65	-0.60965
1.651	-0.197482
1.652	-0.071964
1.653	-0.073963
1.654	0.003987
1.655	0.107243
1.656	0.131417
1.657	0.124725
1.658	0.135882
1.659	0.059204
1.66	-0.082274
1.661	-0.049248
1.662	0.147808
1.663	0.20761
1.664	0.045248
1.665	-0.108321
1.666	-0.11416
1.667	-0.184848
1.668	-0.512422
1.669	-0.786231
1.67	-0.660138
1.671	-0.361133
1.672	-0.201071
1.673	-0.10947
1.674	0.028534
1.675	0.147217
1.676	0.198175
1.677	0.280608
1.678	0.418082
1.679	0.39469
1.68	0.158172
1.681	0.017224
1.682	0.084328
1.683	0.096464
1.684	-0.061791
1.685	-0.157211
1.686	0.05023
1.687	0.499268
1.688	0.880832
1.689	0.90708
1.69	0.53585
1.691	0.026666
1.692	-0.25328
1.693	-0.146664
1.694	0.177908
1.695	0.393438
1.696	0.251829
1.697	-0.303692
1.698	-1.134388
1.699	-1.881881
1.7	-2.056337
1.701	-1.461502
1.702	-0.512034
1.703	0.159753
1.704	0.359411
1.705	0.41229
1.706	0.688451
1.707	1.165509
1.708	1.445487
1.709	1.176695
1.71	0.451167
1.711	-0.234608
1.712	-0.426911
1.713	-0.097477
1.714	0.409607
1.715	0.716739
1.716	0.671317
1.717	0.357105
1.718	-0.101756
1.719	-0.629471
1.72	-0.982082
1.721	-0.825258
1.722	-0.248349
1.723	0.272734
1.724	0.484407
1.725	0.525032
1.726	0.512361
1.727	0.241219
1.728	-0.416118
1.729	-0.982696
1.73	-0.951727
1.731	-0.537774
1.732	-0.157858
1.733	0.139329
1.734	0.390817
1.735	0.514871
1.736	0.497896
1.737	0.505739
1.738	0.616882
1.739	0.591643
1.74	0.317335
1.741	0.113232
1.742	0.155422
1.743	0.209932
1.744	0.128969
1.745	0.067449
1.746	0.152391
1.747	0.212396
1.748	0.070005
1.749	-0.042491
1.75	0.110182
1.751	0.273903
1.752	0.203014
1.753	0.06387
1.754	0.034312
1.755	0.051747
1.756	0.068594
1.757	0.260379
1.758	0.718139
1.759	1.083729
1.76	1.021561
1.761	0.73159
1.762	0.470077
1.763	0.175804
1.764	-0.166066
1.765	-0.351976
1.766	-0.260062
1.767	-0.076561
1.768	-0.002411
1.769	0.128284
1.77	0.438107
1.771	0.580283
1.772	0.323622
1.773	-0.046908
1.774	-0.240424
1.775	-0.292639
1.776	-0.281795
1.777	-0.056952
1.778	0.468486
1.779	0.926043
1.78	0.953371
1.781	0.721019
1.782	0.468291
1.783	0.141216
1.784	-0.246021
1.785	-0.466401
1.786	-0.41036
1.787	-0.312262
1.788	-0.395005
1.789	-0.415588
1.79	-0.133958
1.791	0.131243
1.792	0.077584
1.793	-0.10538
1.794	-0.188118
1.795	-0.216419
1.796	-0.259481
1.797	-0.169569
1.798	0.156982
1.799	0.443565
1.8	0.440723
1.801	0.332969
1.802	0.27414
1.803	0.11964
1.804	-0.157034
1.805	-0.321702
1.806	-0.242453
1.807	-0.153631
1.808	-0.303327
1.809	-0.452907
1.81	-0.303926
1.811	-0.083294
1.812	-0.058062
1.813	-0.102339
1.814	-0.078723
1.815	-0.068442
1.816	-0.120813
1.817	-0.060932
1.818	0.224634
1.819	0.460606
1.82	0.406722
1.821	0.268459
1.822	0.219589
1.823	0.116101
1.824	-0.088766
1.825	-0.192073
1.826	-0.105148
1.827	-0.115103
1.828	-0.474329
1.829	-0.832902
1.83	-0.745467
1.831	-0.410304
1.832	-0.186586
1.833	-0.05574
1.834	0.062897
1.835	0.0903
1.836	0.007292
1.837	0.009191
1.838	0.218768
1.839	0.382771
1.84	0.292944
1.841	0.165762
1.842	0.156721
1.843	0.100277
1.844	-0.056341
1.845	-0.103832
1.846	0.063442
1.847	0.183034
1.848	-0.002676
1.849	-0.221233
1.85	-0.135105
1.851	0.012928
1.852	-0.065459
1.853	-0.185331
1.854	-0.122323
1.855	0.045498
1.856	0.173928
1.857	0.305928
1.858	0.478024
1.859	0.477812
1.86	0.234056
1.861	0.075281
1.862	0.137802
1.863	0.123929
1.864	-0.114371
1.865	-0.284283
1.866	-0.012612
1.867	0.714978
1.868	1.485087
1.869	1.781357
1.87	1.399778
1.871	0.607522
1.872	-0.081593
1.873	-0.316064
1.874	-0.143078
1.875	0.120202
1.876	0.235411
1.877	0.240349
1.878	0.22823
1.879	0.099151
1.88	-0.136019
1.881	-0.176749
1.882	0.04014
1.883	0.185683
1.884	0.089872
1.885	-0.052991
1.886	-0.079066
1.887	-0.168527
1.888	-0.482925
1.889	-0.677006
1.89	-0.442815
1.891	-0.124117
1.892	-0.067928
1.893	-0.099384
1.894	-0.004319
1.895	0.129953
1.896	0.156765
1.897	0.129656
1.898	0.140863
1.899	0.073426
1.9	-0.103222
1.901	-0.12709
1.902	0.062469
1.903	0.165916
1.904	0.04343
1.905	-0.099989
1.906	-0.109736
1.907	-0.188237
1.908	-0.521241
1.909	-0.767228
1.91	-0.581352
1.911	-0.258265
1.912	-0.140886
1.913	-0.098173
1.914	0.040043
1.915	0.172118
1.916	0.161127
1.917	0.080365
1.918	0.044321
1.919	-0.045521
1.92	-0.212054
1.921	-0.199606
1.922	0.036166
1.923	0.178714
1.924	0.079843
1.925	-0.052671
1.926	-0.058628
1.927	-0.142045
1.928	-0.498077
1.929	-0.783613
1.93	-0.624675
1.931	-0.288867
1.932	-0.131198
1.933	-0.056676
1.934	0.082281
1.935	0.19518
1.936	0.190944
1.937	0.200287
1.938	0.341433
1.939	0.412953
1.94	0.266566
1.941	0.149468
1.942	0.202136
1.943	0.198627
1.944	0.025449
1.945	-0.118227
1.946	-0.097935
1.947	-0.146413
1.948	-0.489262
1.949	-0.80186
1.95	-0.692869
1.951	-0.384683
1.952	-0.205374
1.953	-0.08008
1.954	0.097619
1.955	0.213097
1.956	0.167975
1.957	0.087135
1.958	0.106685
1.959	0.094925
1.96	-0.041178
1.961	-0.091216
1.962	0.023569
1.963	0.078333
1.964	-0.010996
1.965	-0.047337
1.966	0.067411
1.967	0.053817
1.968	-0.337482
1.969	-0.756597
1.97	-0.750216
1.971	-0.481281
1.972	-0.262574
1.973	-0.061508
1.974	0.165858
1.975	0.259378
1.976	0.085997
1.977	-0.251431
1.978	-0.549194
1.979	-0.745542
1.98	-0.795686
1.981	-0.570985
1.982	-0.167356
1.983	0.091218
1.984	0.104864
1.985	0.103349
1.986	0.245251
1.987	0.312938
1.988	0.067069
1.989	-0.222461
1.99	-0.19826
1.991	-0.033796
1.992	0.017554
1.993	0.050432
1.994	0.146336
1.995	0.16996
1.996	0.032307
1.997	-0.103378
1.998	-0.061775
1.999	0.015338
2.0	-0.032447
2.001	-0.049905
2.002	0.048099
2.003	0.072012
2.004	-0.036428
2.005	-0.056589
2.006	0.153076
2.007	0.366298
2.008	0.302225
2.009	0.129294
2.01	0.136006
2.011	0.192936
2.012	0.125999
2.013	0.06204
2.014	0.084519
2.015	0.056638
2.016	-0.107957
2.017	-0.235172
2.018	-0.140672
2.019	0.027336
2.02	0.085856
2.021	0.159383
2.022	0.300651
2.023	0.286675
2.024	0.039035
2.025	-0.194818
2.026	-0.184918
2.027	-0.033713
2.028	0.068573
2.029	0.243275
2.03	0.557672
2.031	0.647469
2.032	0.324207
2.033	-0.061474
2.034	-0.186654
2.035	-0.120881
2.036	-0.038991
2.037	0.099903
2.038	0.358238
2.039	0.504804
2.04	0.378417
2.041	0.232476
2.042	0.228376
2.043	0.153708
2.044	-0.098534
2.045	-0.298304
2.046	-0.236613
2.047	-0.055999
2.048	0.008169
2.049	0.070267
2.05	0.263446
2.051	0.320419
2.052	0.083489
2.053	-0.161746
2.054	-0.17893
2.055	-0.072446
2.056	2.3e-05
2.057	0.108722
2.058	0.333676
2.059	0.450388
2.06	0.300719
2.061	0.144547
2.062	0.152048
2.063	0.113328
2.064	-0.085683
2.065	-0.235951
2.066	-0.170299
2.067	-0.079943
2.068	-0.191069
2.069	-0.272109
2.07	-0.070281
2.071	0.124079
2.072	0.038724
2.073	-0.110719
2.074	-0.091163
2.075	0.006723
2.076	0.022447
2.077	0.01134
2.078	0.076505
2.079	0.083583
2.08	-0.053847
2.081	-0.106907
2.082	0.018426
2.083	0.071841
2.084	-0.064323
2.085	-0.166595
2.086	-0.040998
2.087	0.14673
2.088	0.149971
2.089	0.108913
2.09	0.213007
2.091	0.242203
2.092	0.042743
2.093	-0.137621
2.094	-0.108507
2.095	0.002453
2.096	0.040397
2.097	0.094343
2.098	0.271861
2.099	0.367338
2.1	0.216756
2.101	0.064259
2.102	0.077981
2.103	0.059382
2.104	-0.098853
2.105	-0.191567
2.106	-0.050962
2.107	0.142052
2.108	0.143631
2.109	0.10531
2.11	0.220647
2.111	0.263783
2.112	0.070803
2.113	-0.117798
2.114	-0.109771
2.115	-0.026118
2.116	-0.015528
2.117	0.024095
2.118	0.221115
2.119	0.373769
2.12	0.285602
2.121	0.156575
2.122	0.144662
2.123	0.082563
2.124	-0.104962
2.125	-0.214884
2.126	-0.11448
2.127	-0.024321
2.128	-0.175101
2.129	-0.319429
2.13	-0.177477
2.131	0.000569
2.132	-0.034809
2.133	-0.103836
2.134	-0.039261
2.135	0.034889
2.136	-0.026253
2.137	-0.116184
2.138	-0.068379
2.139	0.004876
2.14	-0.036081
2.141	-0.039754
2.142	0.069112
2.143	0.087611
2.144	-0.058522
2.145	-0.155386
2.146	-0.059145
2.147	0.015045
2.148	-0.164547
2.149	-0.343597
2.15	-0.214008
2.151	-0.006495
2.152	0.006177
2.153	-0.037532
2.154	0.012806
2.155	0.053476
2.156	-0.013106
2.157	-0.032947
2.158	0.152847
2.159	0.337107
2.16	0.288819
2.161	0.17921
2.162	0.167184
2.163	0.10145
2.164	-0.084485
2.165	-0.187257
2.166	-0.074579
2.167	0.033851
2.168	-0.094908
2.169	-0.214594
2.17	-0.040839
2.171	0.166466
2.172	0.130962
2.173	0.019173
2.174	0.009459
2.175	-0.002768
2.176	-0.150889
2.177	-0.32783
2.178	-0.350253
2.179	-0.278358
2.18	-0.229604
2.181	-0.117127
2.182	0.059534
2.183	0.093421
2.184	-0.050803
2.185	-0.130398
2.186	-0.004307
2.187	0.074194
2.188	-0.180571
2.189	-0.510135
2.19	-0.495643
2.191	-0.26203
2.192	-0.113711
2.193	-0.026856
2.194	0.07704
2.195	0.089181
2.196	-0.07787
2.197	-0.278539
2.198	-0.322665
2.199	-0.276753
2.2	-0.251901
2.201	-0.148202
2.202	0.034382
2.203	0.069002
2.204	-0.110869
2.205	-0.274208
2.206	-0.221992
2.207	-0.073797
2.208	-0.023668
2.209	0.061682
2.21	0.297422
2.211	0.38257
2.212	0.142892
2.213	-0.121293
2.214	-0.141835
2.215	-0.003188
2.216	0.124708
2.217	0.275169
2.218	0.495891
2.219	0.559899
2.22	0.339952
2.221	0.142692
2.222	0.16354
2.223	0.164404
2.224	-0.023203
2.225	-0.206072
2.226	-0.175768
2.227	-0.075385
2.228	-0.156939
2.229	-0.280041
2.23	-0.194285
2.231	-0.072414
2.232	-0.129641
2.233	-0.204585
2.234	-0.11367
2.235	0.049752
2.236	0.129989
2.237	0.166128
2.238	0.233982
2.239	0.192768
2.24	-0.013881
2.241	-0.108105
2.242	0.029644
2.243	0.121403
2.244	-0.00274
2.245	-0.142137
2.246	-0.087706
2.247	0.012297
2.248	-0.092256
2.249	-0.241481
2.25	-0.161078
2.251	-0.023291
2.252	-0.066778
2.253	-0.147551
2.254	-0.077559
2.255	0.062432
2.256	0.121736
2.257	0.136952
2.258	0.182768
2.259	0.121766
2.26	-0.096919
2.261	-0.189714
2.262	-0.034619
2.263	0.088169
2.264	0.001818
2.265	-0.104576
2.266	-0.034608
2.267	0.053756
2.268	-0.091523
2.269	-0.300848
2.27	-0.275174
2.271	-0.150826
2.272	-0.150484
2.273	-0.159552
2.274	-0.036631
2.275	0.116447
2.276	0.157005
2.277	0.140445
2.278	0.159445
2.279	0.085168
2.28	-0.136507
2.281	-0.22695
2.282	-0.06088
2.283	0.08825
2.284	0.039272
2.285	-0.03709
2.286	0.0307
2.287	0.055933
2.288	-0.233187
2.289	-0.626666
2.29	-0.699398
2.291	-0.495265
2.292	-0.303068
2.293	-0.146441
2.294	0.049258
2.295	0.195996
2.296	0.193015
2.297	0.137433
2.298	0.154937
2.299	0.12751
2.3	-0.026738
2.301	-0.081179
2.302	0.062356
2.303	0.152813
2.304	0.047174
2.305	-0.065677
2.306	-0.006493
2.307	0.061832
2.308	-0.100981
2.309	-0.312363
2.31	-0.269668
2.311	-0.114041
2.312	-0.080609
2.313	-0.074056
2.314	0.029783
2.315	0.129589
2.316	0.1064
2.317	0.053735
2.318	0.097743
2.319	0.105511
2.32	-0.031096
2.321	-0.091965
2.322	0.042117
2.323	0.138356
2.324	0.051749
2.325	-0.041141
2.326	0.020071
2.327	0.04031
2.328	-0.257091
2.329	-0.665545
2.33	-0.748794
2.331	-0.530212
2.332	-0.296376
2.333	-0.098405
2.334	0.102453
2.335	0.211336
2.336	0.158363
2.337	0.079459
2.338	0.114336
2.339	0.122586
2.34	-0.013561
2.341	-0.077295
2.342	0.052006
2.343	0.145274
2.344	0.05914
2.345	-0.030805
2.346	0.04438
2.347	0.119455
2.348	-0.045001
2.349	-0.259336
2.35	-0.20505
2.351	-0.021006
2.352	0.032882
2.353	0.02337
2.354	0.071406
2.355	0.103399
2.356	0.041026
2.357	0.006172
2.358	0.119748
2.359	0.206868
2.36	0.106425
2.361	0.012675
2.362	0.068003
2.363	0.092498
2.364	-0.019738
2.365	-0.082941
2.366	0.06243
2.367	0.219236
2.368	0.068833
2.369	-0.278745
2.37	-0.437132
2.371	-0.356074
2.372	-0.224472
2.373	-0.07805
2.374	0.088965
2.375	0.161636
2.376	0.066748
2.377	-0.06106
2.378	-0.066879
2.379	-0.04591
2.38	-0.108309
2.381	-0.110738
2.382	0.014702
2.383	0.076098
2.384	-0.01389
2.385	-0.069488
2.386	0.059734
2.387	0.208281
2.388	0.153356
2.389	0.059706
2.39	0.176475
2.391	0.316528
2.392	0.229925
2.393	0.059779
2.394	0.025977
2.395	0.075844
2.396	0.036681
2.397	-0.107414
2.398	-0.267416
2.399	-0.450787
2.4	-0.611867
2.401	-0.529385
2.402	-0.183965
2.403	0.101635
2.404	0.121623
2.405	0.038122
2.406	0.058709
2.407	0.074996
2.408	-0.135215
2.409	-0.412533
2.41	-0.417775
2.411	-0.217785
2.412	-0.080981
2.413	-0.007541
2.414	0.106822
2.415	0.200079
2.416	0.171644
2.417	0.086406
2.418	0.037247
2.419	-0.079443
2.42	-0.30092
2.421	-0.366697
2.422	-0.155154
2.423	0.069124
2.424	0.095379
2.425	0.051231
2.426	0.120016
2.427	0.203772
2.428	0.11489
2.429	0.006741
2.43	0.115276
2.431	0.268438
2.432	0.226478
2.433	0.100795
2.434	0.070847
2.435	0.097872
2.436	0.089935
2.437	0.123662
2.438	0.269058
2.439	0.320224
2.44	0.126983
2.441	-0.058564
2.442	-0.028407
2.443	0.046117
2.444	0.003235
2.445	-0.035627
2.446	0.071754
2.447	0.186423
2.448	0.09978
2.449	-0.036442
2.45	0.024611
2.451	0.138187
2.452	0.10315
2.453	0.044929
2.454	0.105395
2.455	0.16114
2.456	-0.005063
2.457	-0.437053
2.458	-0.969968
2.459	-1.370277
2.46	-1.434416
2.461	-1.082168
2.462	-0.497931
2.463	-0.035607
2.464	0.147224
2.465	0.215444
2.466	0.332077
2.467	0.340849
2.468	0.009965
2.469	-0.447071
2.47	-0.594561
2.471	-0.424548
2.472	-0.202704
2.473	0.00265
2.474	0.211135
2.475	0.321749
2.476	0.253625
2.477	0.120257
2.478	0.063205
2.479	-0.005028
2.48	-0.171697
2.481	-0.250637
2.482	-0.123077
2.483	0.026206
2.484	0.057032
2.485	0.09069
2.486	0.263944
2.487	0.464882
2.488	0.514907
2.489	0.511807
2.49	0.586404
2.491	0.570542
2.492	0.359592
2.493	0.157768
2.494	0.11614
2.495	0.126601
2.496	0.062424
2.497	0.016778
2.498	0.113584
2.499	0.186962
2.5	0.055876
2.501	-0.096756
2.502	-0.078415
2.503	-0.009545
2.504	-0.012522
2.505	0.015062
2.506	0.182558
2.507	0.368866
2.508	0.412152
2.509	0.430945
2.51	0.55258
2.511	0.584304
2.512	0.397402
2.513	0.186003
2.514	0.105574
2.515	0.059992
2.516	-0.053535
2.517	-0.089948
2.518	0.13998
2.519	0.460108
2.52	0.536067
2.521	0.386957
2.522	0.219807
2.523	0.058991
2.524	-0.109389
2.525	-0.147992
2.526	0.075997
2.527	0.485626
2.528	0.896641
2.529	1.240912
2.53	1.4429
2.531	1.300912
2.532	0.811193
2.533	0.289723
2.534	-0.023068
2.535	-0.195968
2.536	-0.353786
2.537	-0.372395
2.538	-0.06281
2.539	0.386539
2.54	0.588884
2.541	0.501042
2.542	0.312038
2.543	0.081089
2.544	-0.157854
2.545	-0.248715
2.546	-0.081209
2.547	0.232382
2.548	0.523388
2.549	0.817107
2.55	1.105535
2.551	1.126208
2.552	0.766132
2.553	0.296582
2.554	-0.029232
2.555	-0.248886
2.556	-0.450781
2.557	-0.477122
2.558	-0.119267
2.559	0.424314
2.56	0.72142
2.561	0.671186
2.562	0.43626
2.563	0.103283
2.564	-0.23502
2.565	-0.364272
2.566	-0.119116
2.567	0.434531
2.568	1.081802
2.569	1.652001
2.57	1.961017
2.571	1.755445
2.572	1.033859
2.573	0.207758
2.574	-0.312009
2.575	-0.491169
2.576	-0.484951
2.577	-0.264302
2.578	0.272898
2.579	0.874298
2.58	1.110169
2.581	0.948391
2.582	0.638012
2.583	0.262684
2.584	-0.16528
2.585	-0.472902
2.586	-0.460755
2.587	-0.125905
2.588	0.400999
2.589	1.01857
2.59	1.509625
2.591	1.498667
2.592	0.912533
2.593	0.16784
2.594	-0.313123
2.595	-0.492296
2.596	-0.528815
2.597	-0.417594
2.598	-0.062021
2.599	0.369161
2.6	0.573126
2.601	0.534959
2.602	0.397795
2.603	0.154855
2.604	-0.194105
2.605	-0.458316
2.606	-0.43971
2.607	-0.163688
2.608	0.236748
2.609	0.738914
2.61	1.212654
2.611	1.275045
2.612	0.7907
2.613	0.131582
2.614	-0.300551
2.615	-0.464092
2.616	-0.497279
2.617	-0.382446
2.618	-0.027885
2.619	0.388743
2.62	0.563435
2.621	0.491832
2.622	0.333974
2.623	0.092978
2.624	-0.233238
2.625	-0.467097
2.626	-0.439501
2.627	-0.215074
2.628	0.072345
2.629	0.481099
2.63	0.96156
2.631	1.107785
2.632	0.711534
2.633	0.1083
2.634	-0.300872
2.635	-0.458408
2.636	-0.486498
2.637	-0.374536
2.638	-0.059186
2.639	0.266741
2.64	0.332785
2.641	0.205984
2.642	0.089529
2.643	-0.039751
2.644	-0.241601
2.645	-0.378416
2.646	-0.311935
2.647	-0.168747
2.648	-0.162656
2.649	-0.18827
2.65	-0.015087
2.651	0.211532
2.652	0.203232
2.653	0.006752
2.654	-0.157268
2.655	-0.234547
2.656	-0.280888
2.657	-0.252634
2.658	-0.101019
2.659	0.003954
2.66	-0.085684
2.661	-0.19198
2.662	-0.150613
2.663	-0.105376
2.664	-0.187334
2.665	-0.265596
2.666	-0.180524
2.667	-0.039215
2.668	-0.05323
2.669	-0.122382
2.67	-0.003267
2.671	0.195828
2.672	0.208338
2.673	0.054485
2.674	-0.08743
2.675	-0.170895
2.676	-0.228617
2.677	-0.201778
2.678	-0.051527
2.679	0.032551
2.68	-0.100655
2.681	-0.249799
2.682	-0.219811
2.683	-0.146091
2.684	-0.180421
2.685	-0.21865
2.686	-0.118205
2.687	-0.009419
2.688	-0.14219
2.689	-0.409594
2.69	-0.448401
2.691	-0.230055
2.692	-0.030149
2.693	0.042397
2.694	0.051403
2.695	-0.010846
2.696	-0.216566
2.697	-0.554915
2.698	-0.901914
2.699	-1.116135
2.7	-1.095738
2.701	-0.807847
2.702	-0.389229
2.703	-0.105825
2.704	-0.067621
2.705	-0.099825
2.706	-0.01651
2.707	0.055416
2.708	-0.156965
2.709	-0.532259
2.71	-0.610762
2.711	-0.301637
2.712	0.033307
2.713	0.162103
2.714	0.129628
2.715	-0.007378
2.716	-0.254593
2.717	-0.578942
2.718	-0.880791
2.719	-1.062035
2.72	-1.046151
2.721	-0.789113
2.722	-0.400008
2.723	-0.131577
2.724	-0.09524
2.725	-0.109203
2.726	0.032816
2.727	0.204024
2.728	0.05344
2.729	-0.416615
2.73	-0.722597
2.731	-0.580413
2.732	-0.228059
2.733	0.037758
2.734	0.132649
2.735	0.05118
2.736	-0.19369
2.737	-0.538672
2.738	-0.889617
2.739	-1.155923
2.74	-1.221325
2.741	-0.982222
2.742	-0.535904
2.743	-0.177343
2.744	-0.06379
2.745	-0.026633
2.746	0.154866
2.747	0.36634
2.748	0.244921
2.749	-0.231959
2.75	-0.588313
2.751	-0.522429
2.752	-0.253509
2.753	-0.067444
2.754	-0.010957
2.755	-0.020995
2.756	-0.05115
2.757	-0.088151
2.758	-0.172514
2.759	-0.376126
2.76	-0.617871
2.761	-0.633064
2.762	-0.34782
2.763	-0.059695
2.764	-0.036402
2.765	-0.165003
2.766	-0.165174
2.767	-0.016372
2.768	0.041308
2.769	-0.036709
2.77	-0.012107
2.771	0.146932
2.772	0.196007
2.773	0.060494
2.774	-0.107072
2.775	-0.207741
2.776	-0.268788
2.777	-0.348842
2.778	-0.491284
2.779	-0.698425
2.78	-0.850151
2.781	-0.749851
2.782	-0.405869
2.783	-0.117446
2.784	-0.104742
2.785	-0.219345
2.786	-0.185243
2.787	-0.02815
2.788	-0.048827
2.789	-0.288153
2.79	-0.389986
2.791	-0.206868
2.792	-0.011963
2.793	0.002213
2.794	-0.087869
2.795	-0.184368
2.796	-0.275862
2.797	-0.387667
2.798	-0.554594
2.799	-0.783631
2.8	-0.956674
2.801	-0.86733
2.802	-0.510333
2.803	-0.184109
2.804	-0.118593
2.805	-0.176363
2.806	-0.100678
2.807	0.038932
2.808	-0.119124
2.809	-0.619942
2.81	-0.980449
2.811	-0.873969
2.812	-0.509265
2.813	-0.168848
2.814	0.0751
2.815	0.211805
2.816	0.190764
2.817	-0.095249
2.818	-0.760583
2.819	-1.696102
2.82	-2.376723
2.821	-2.208428
2.822	-1.223395
2.823	-0.135367
2.824	0.430997
2.825	0.499685
2.826	0.444686
2.827	0.354531
2.828	-0.056302
2.829	-0.809974
2.83	-1.35369
2.831	-1.267677
2.832	-0.765424
2.833	-0.236141
2.834	0.143966
2.835	0.358641
2.836	0.502471
2.837	0.705241
2.838	0.906093
2.839	0.809789
2.84	0.357559
2.841	-0.017971
2.842	-0.004319
2.843	0.151672
2.844	0.108864
2.845	-0.079408
2.846	-0.130606
2.847	0.017622
2.848	0.154546
2.849	0.22271
2.85	0.403158
2.851	0.642168
2.852	0.629223
2.853	0.296928
2.854	-0.114577
2.855	-0.366341
2.856	-0.309813
2.857	0.163463
2.858	0.95751
2.859	1.583392
2.86	1.578786
2.861	1.099735
2.862	0.600239
2.863	0.189095
2.864	-0.235763
2.865	-0.578807
2.866	-0.645831
2.867	-0.512701
2.868	-0.504108
2.869	-0.663662
2.87	-0.616818
2.871	-0.244471
2.872	0.064199
2.873	0.028657
2.874	-0.223847
2.875	-0.444443
2.876	-0.455139
2.877	-0.168517
2.878	0.293523
2.879	0.554488
2.88	0.408662
2.881	0.143767
2.882	0.055591
2.883	0.016077
2.884	-0.174725
2.885	-0.40876
2.886	-0.470788
2.887	-0.459846
2.888	-0.754201
2.889	-1.36867
2.89	-1.706763
2.891	-1.372406
2.892	-0.706906
2.893	-0.207254
2.894	-0.01865
2.895	-0.05651
2.896	-0.202123
2.897	-0.396034
2.898	-0.663652
2.899	-1.012427
2.9	-1.26843
2.901	-1.149813
2.902	-0.643644
2.903	-0.127095
2.904	0.060065
2.905	-0.0073
2.906	-0.025239
2.907	0.084259
2.908	0.091897
2.909	-0.144779
2.91	-0.477609
2.911	-0.679663
2.912	-0.603853
2.913	-0.261305
2.914	0.127393
2.915	0.320052
2.916	0.236755
2.917	-0.132647
2.918	-0.83327
2.919	-1.774229
2.92	-2.493961
2.921	-2.406025
2.922	-1.457802
2.923	-0.281337
2.924	0.479099
2.925	0.760329
2.926	0.88382
2.927	0.924985
2.928	0.475529
2.929	-0.834069
2.93	-2.623345
2.931	-3.787371
2.932	-3.428703
2.933	-1.743271
2.934	0.190969
2.935	1.406273
2.936	1.575513
2.937	0.729125
2.938	-1.026719
2.939	-3.214364
2.94	-4.724631
2.941	-4.484459
2.942	-2.550833
2.943	-0.15404
2.944	1.49289
2.945	2.155624
2.946	2.323481
2.947	2.298617
2.948	1.737075
2.949	0.155327
2.95	-2.12565
2.951	-3.801002
2.952	-3.675681
2.953	-1.865427
2.954	0.374804
2.955	1.897838
2.956	2.467647
2.957	2.477081
2.958	2.179525
2.959	1.429053
2.96	0.329336
2.961	-0.403787
2.962	-0.269823
2.963	0.392386
2.964	0.962515
2.965	1.238404
2.966	1.395561
2.967	1.478503
2.968	1.186431
2.969	0.389097
2.97	-0.398348
2.971	-0.593707
2.972	-0.256118
2.973	0.219143
2.974	0.592557
2.975	0.812346
2.976	0.955605
2.977	1.149535
2.978	1.339264
2.979	1.192919
2.98	0.594332
2.981	0.031626
2.982	-0.023123
2.983	0.245186
2.984	0.379665
2.985	0.278901
2.986	0.175334
2.987	0.196644
2.988	0.207134
2.989	0.163422
2.99	0.278853
2.991	0.564103
2.992	0.689937
2.993	0.518589
2.994	0.258671
2.995	0.105293
2.996	0.121774
2.997	0.388115
2.998	0.932663
2.999	1.450744
3.0	1.491034
3.001	1.075291
3.002	0.629196
3.003	0.316708
3.004	0.000521
3.005	-0.307719
3.006	-0.409122
3.007	-0.24588
3.008	0.010762
3.009	0.270681
3.01	0.610206
3.011	0.899424
3.012	0.82657
3.013	0.405278
3.014	-0.021178
3.015	-0.231588
3.016	-0.225512
3.017	0.023633
3.018	0.569667
3.019	1.169643
3.02	1.368892
3.021	1.098032
3.022	0.692373
3.023	0.311331
3.024	-0.111096
3.025	-0.491461
3.026	-0.602368
3.027	-0.375057
3.028	0.043654
3.029	0.548542
3.03	1.083562
3.031	1.365079
3.032	1.088388
3.033	0.417553
3.034	-0.175063
3.035	-0.455819
3.036	-0.493622
3.037	-0.296478
3.038	0.277337
3.039	1.100016
3.04	1.629055
3.041	1.540853
3.042	1.0647
3.043	0.480504
3.044	-0.123005
3.045	-0.602896
3.046	-0.771914
3.047	-0.639429
3.048	-0.369678
3.049	0.017455
3.05	0.550204
3.051	0.928053
3.052	0.785448
3.053	0.253299
3.054	-0.216713
3.055	-0.42126
3.056	-0.462778
3.057	-0.367851
3.058	0.019634
3.059	0.635922
3.06	1.045372
3.061	0.998225
3.062	0.694628
3.063	0.324961
3.064	-0.094904
3.065	-0.459003
3.066	-0.597998
3.067	-0.541099
3.068	-0.467291
3.069	-0.345652
3.07	0.004308
3.071	0.413886
3.072	0.48086
3.073	0.193458
3.074	-0.100828
3.075	-0.233424
3.076	-0.30061
3.077	-0.298201
3.078	-0.023024
3.079	0.509486
3.08	0.892091
3.081	0.872308
3.082	0.625264
3.083	0.314839
3.084	-0.057378
3.085	-0.382738
3.086	-0.464328
3.087	-0.280978
3.088	0.003298
3.089	0.314472
3.09	0.67017
3.091	0.881445
3.092	0.701031
3.093	0.259598
3.094	-0.081879
3.095	-0.217363
3.096	-0.297305
3.097	-0.327645
3.098	-0.080674
3.099	0.45126
3.1	0.855628
3.101	0.857068
3.102	0.619161
3.103	0.314439
3.104	-0.042796
3.105	-0.343695
3.106	-0.404467
3.107	-0.220736
3.108	0.030959
3.109	0.28077
3.11	0.581213
3.111	0.786139
3.112	0.654069
3.113	0.280685
3.114	-0.0143
3.115	-0.144319
3.116	-0.252931
3.117	-0.321591
3.118	-0.092057
3.119	0.463867
3.12	0.927328
3.121	0.984269
3.122	0.752234
3.123	0.397445
3.124	-0.023753
3.125	-0.358116
3.126	-0.409773
3.127	-0.184265
3.128	0.129577
3.129	0.444891
3.13	0.775674
3.131	0.924141
3.132	0.636928
3.133	0.080792
3.134	-0.304813
3.135	-0.365893
3.136	-0.297759
3.137	-0.210415
3.138	0.059326
3.139	0.540285
3.14	0.870257
3.141	0.822554
3.142	0.612627
3.143	0.392238
3.144	0.070642
3.145	-0.307725
3.146	-0.519122
3.147	-0.461496
3.148	-0.224269
3.149	0.137711
3.15	0.589119
3.151	0.853396
3.152	0.640782
3.153	0.133019
3.154	-0.210705
3.155	-0.242131
3.156	-0.176761
3.157	-0.143821
3.158	0.006379
3.159	0.327097
3.16	0.541011
3.161	0.491219
3.162	0.371694
3.163	0.268927
3.164	0.052357
3.165	-0.244845
3.166	-0.397828
3.167	-0.30109
3.168	-0.042763
3.169	0.324619
3.17	0.767356
3.171	1.004295
3.172	0.743444
3.173	0.179165
3.174	-0.209642
3.175	-0.265316
3.176	-0.203476
3.177	-0.145955
3.178	0.076615
3.179	0.50853
3.18	0.793621
3.181	0.702313
3.182	0.465644
3.183	0.264578
3.184	0.015456
3.185	-0.260821
3.186	-0.381872
3.187	-0.303094
3.188	-0.173292
3.189	-0.031944
3.19	0.22669
3.191	0.464889
3.192	0.37803
3.193	0.036124
3.194	-0.182406
3.195	-0.152182
3.196	-0.082229
3.197	-0.09291
3.198	-0.025273
3.199	0.196689
3.2	0.328058
3.201	0.244184
3.202	0.158386
3.203	0.147288
3.204	0.049633
3.205	-0.135217
3.206	-0.226689
3.207	-0.196186
3.208	-0.220841
3.209	-0.313825
3.21	-0.235483
3.211	0.009095
3.212	0.097114
3.213	-0.030194
3.214	-0.100868
3.215	-0.019817
3.216	0.036755
3.217	0.011931
3.218	0.127494
3.219	0.470963
3.22	0.712945
3.221	0.623559
3.222	0.417206
3.223	0.261292
3.224	0.065783
3.225	-0.15885
3.226	-0.254034
3.227	-0.218584
3.228	-0.252935
3.229	-0.384302
3.23	-0.360762
3.231	-0.142256
3.232	-0.015944
3.233	-0.060242
3.234	-0.057273
3.235	0.052759
3.236	0.091696
3.237	0.009932
3.238	0.030071
3.239	0.255288
3.24	0.406155
3.241	0.295421
3.242	0.131921
3.243	0.056598
3.244	-0.039657
3.245	-0.158986
3.246	-0.149213
3.247	-0.018901
3.248	0.003942
3.249	-0.134637
3.25	-0.171235
3.251	-0.022056
3.252	0.059749
3.253	-0.00726
3.254	-0.034698
3.255	0.023505
3.256	0.015037
3.257	-0.065889
3.258	0.028126
3.259	0.371609
3.26	0.605406
3.261	0.489108
3.262	0.256905
3.263	0.100986
3.264	-0.057588
3.265	-0.200119
3.266	-0.144389
3.267	0.142645
3.268	0.435927
3.269	0.564473
3.27	0.608803
3.271	0.601055
3.272	0.417247
3.273	0.123428
3.274	-0.039152
3.275	-0.049086
3.276	-0.121728
3.277	-0.333238
3.278	-0.453352
3.279	-0.308784
3.28	-0.104283
3.281	-0.029112
3.282	0.054554
3.283	0.188194
3.284	0.172157
3.285	-0.019858
3.286	-0.168981
3.287	-0.174307
3.288	-0.201745
3.289	-0.326831
3.29	-0.311761
3.291	-0.078212
3.292	0.061851
3.293	-0.019306
3.294	-0.066992
3.295	0.048543
3.296	0.139874
3.297	0.043542
3.298	-0.146021
3.299	-0.300641
3.3	-0.462759
3.301	-0.568503
3.302	-0.396098
3.303	-0.032446
3.304	0.159927
3.305	0.085623
3.306	-0.019468
3.307	-0.014576
3.308	-0.045734
3.309	-0.190547
3.31	-0.21088
3.311	-0.010347
3.312	0.11959
3.313	0.048854
3.314	0.004355
3.315	0.095039
3.316	0.153199
3.317	0.071375
3.318	-0.003718
3.319	0.033606
3.32	0.012258
3.321	-0.11998
3.322	-0.109826
3.323	0.077188
3.324	0.158121
3.325	0.046641
3.326	-0.052471
3.327	-0.050917
3.328	-0.15583
3.329	-0.458627
3.33	-0.626314
3.331	-0.439643
3.332	-0.179923
3.333	-0.068931
3.334	0.026626
3.335	0.176945
3.336	0.228353
3.337	0.093377
3.338	-0.086864
3.339	-0.195554
3.34	-0.321399
3.341	-0.433602
3.342	-0.306395
3.343	0.001362
3.344	0.156521
3.345	0.086563
3.346	0.04434
3.347	0.161306
3.348	0.205541
3.349	-0.020346
3.35	-0.243201
3.351	-0.172184
3.352	-0.003711
3.353	0.041744
3.354	0.072682
3.355	0.164702
3.356	0.191227
3.357	0.09543
3.358	0.036176
3.359	0.094671
3.36	0.073635
3.361	-0.082512
3.362	-0.107516
3.363	0.047592
3.364	0.112556
3.365	0.020137
3.366	0.005814
3.367	0.176375
3.368	0.265044
3.369	0.034627
3.37	-0.256611
3.371	-0.280016
3.372	-0.162621
3.373	-0.090359
3.374	0.013893
3.375	0.171626
3.376	0.224155
3.377	0.09699
3.378	-0.070173
3.379	-0.175904
3.38	-0.319082
3.381	-0.466167
3.382	-0.374289
3.383	-0.078963
3.384	0.098591
3.385	0.083389
3.386	0.113202
3.387	0.277667
3.388	0.273404
3.389	-0.130544
3.39	-0.573576
3.391	-0.61841
3.392	-0.398514
3.393	-0.185255
3.394	0.026824
3.395	0.231199
3.396	0.287429
3.397	0.174855
3.398	0.092176
3.399	0.144058
3.4	0.131342
3.401	-0.028246
3.402	-0.086601
3.403	0.022943
3.404	0.064739
3.405	-0.013472
3.406	0.007044
3.407	0.205393
3.408	0.320228
3.409	0.169682
3.41	0.024937
3.411	0.095111
3.412	0.117835
3.413	-0.056561
3.414	-0.166377
3.415	-0.043746
3.416	0.159233
3.417	0.290984
3.418	0.415853
3.419	0.548099
3.42	0.457803
3.421	0.13894
3.422	-0.017695
3.423	0.096618
3.424	0.146032
3.425	-0.017237
3.426	-0.159794
3.427	-0.10656
3.428	-0.031245
3.429	-0.110454
3.43	-0.137849
3.431	0.039047
3.432	0.136455
3.433	-0.007917
3.434	-0.135216
3.435	-0.060461
3.436	0.087972
3.437	0.179532
3.438	0.302535
3.439	0.491078
3.44	0.500756
3.441	0.26636
3.442	0.12049
3.443	0.17161
3.444	0.136027
3.445	-0.085457
3.446	-0.246645
3.447	-0.18171
3.448	-0.070365
3.449	-0.08917
3.45	-0.043809
3.451	0.186472
3.452	0.2857
3.453	0.090035
3.454	-0.10999
3.455	-0.10432
3.456	-0.037943
3.457	-0.088818
3.458	-0.180956
3.459	-0.18777
3.46	-0.215042
3.461	-0.300531
3.462	-0.215688
3.463	0.040051
3.464	0.139914
3.465	-0.014806
3.466	-0.165771
3.467	-0.149788
3.468	-0.167893
3.469	-0.383434
3.47	-0.498487
3.471	-0.27468
3.472	-0.026818
3.473	-0.016731
3.474	-0.050283
3.475	0.036743
3.476	0.101784
3.477	-0.019134
3.478	-0.251587
3.479	-0.445747
3.48	-0.610444
3.481	-0.688233
3.482	-0.469055
3.483	-0.046494
3.484	0.181778
3.485	0.09446
3.486	-0.03863
3.487	-0.027988
3.488	-0.057504
3.489	-0.292158
3.49	-0.437095
3.491	-0.242455
3.492	-0.007154
3.493	0.005654
3.494	-0.031587
3.495	0.038882
3.496	0.124013
3.497	0.156623
3.498	0.269387
3.499	0.496042
3.5	0.551655
3.501	0.329667
3.502	0.161181
3.503	0.187265
3.504	0.149111
3.505	-0.050131
3.506	-0.162375
3.507	-0.022308
3.508	0.129556
3.509	0.009099
3.51	-0.166505
3.511	-0.088011
3.512	0.046554
3.513	0.004956
3.514	-0.058024
3.515	-0.005032
3.516	0.04388
3.517	-0.023225
3.518	-0.091428
3.519	-0.042847
3.52	-0.020719
3.521	-0.098382
3.522	-0.058422
3.523	0.12269
3.524	0.158733
3.525	-0.017071
3.526	-0.121787
3.527	0.027866
3.528	0.187402
3.529	0.056539
3.53	-0.148985
3.531	-0.096865
3.532	0.03291
3.533	-0.001632
3.534	-0.062423
3.535	-0.01137
3.536	0.042179
3.537	-0.010467
3.538	-0.062705
3.539	-0.007319
3.54	0.006534
3.541	-0.095251
3.542	-0.08432
3.543	0.082184
3.544	0.125942
3.545	-0.027611
3.546	-0.105088
3.547	0.07213
3.548	0.253169
3.549	0.124964
3.55	-0.107325
3.551	-0.105239
3.552	-0.021893
3.553	-0.072301
3.554	-0.117408
3.555	-0.038707
3.556	0.03816
3.557	-0.001185
3.558	-0.050008
3.559	0.002945
3.56	0.009974
3.561	-0.10707
3.562	-0.116162
3.563	0.040139
3.564	0.092775
3.565	-0.037555
3.566	-0.089472
3.567	0.103447
3.568	0.279505
3.569	0.121711
3.57	-0.153444
3.571	-0.182623
3.572	-0.097805
3.573	-0.117941
3.574	-0.130182
3.575	-0.035953
3.576	0.045387
3.577	0.029704
3.578	0.062957
3.579	0.255373
3.58	0.370303
3.581	0.232567
3.582	0.092607
3.583	0.107369
3.584	0.078009
3.585	-0.069187
3.586	-0.111863
3.587	0.061347
3.588	0.147482
3.589	-0.148209
3.59	-0.508744
3.591	-0.49805
3.592	-0.290641
3.593	-0.190944
3.594	-0.129407
3.595	-0.011997
3.596	0.054574
3.597	0.004372
3.598	0.002627
3.599	0.177901
3.6	0.30012
3.601	0.184286
3.602	0.065336
3.603	0.092781
3.604	0.072245
3.605	-0.063808
3.606	-0.095028
3.607	0.08124
3.608	0.153496
3.609	-0.175077
3.61	-0.575831
3.611	-0.584456
3.612	-0.352261
3.613	-0.194129
3.614	-0.077204
3.615	0.060798
3.616	0.099754
3.617	-0.030652
3.618	-0.163158
3.619	-0.128813
3.62	-0.066571
3.621	-0.111055
3.622	-0.091708
3.623	0.046543
3.624	0.078946
3.625	-0.044279
3.626	-0.07181
3.627	0.140923
3.628	0.334089
3.629	0.223721
3.63	0.049957
3.631	0.125997
3.632	0.206543
3.633	0.032417
3.634	-0.168347
3.635	-0.150921
3.636	-0.009061
3.637	0.083172
3.638	0.160387
3.639	0.281395
3.64	0.259881
3.641	0.040238
3.642	-0.045523
3.643	0.119136
3.644	0.204034
3.645	0.032155
3.646	-0.16786
3.647	-0.186481
3.648	-0.194727
3.649	-0.395888
3.65	-0.504821
3.651	-0.246539
3.652	0.033778
3.653	0.008925
3.654	-0.107297
3.655	-0.068262
3.656	0.036963
3.657	0.030418
3.658	-0.067532
3.659	-0.154677
3.66	-0.269401
3.661	-0.37326
3.662	-0.245437
3.663	0.068444
3.664	0.210882
3.665	0.071413
3.666	-0.062379
3.667	0.032349
3.668	0.157184
3.669	0.051938
3.67	-0.067028
3.671	0.06762
3.672	0.201354
3.673	0.088076
3.674	-0.072537
3.675	-0.083505
3.676	-0.043629
3.677	-0.092522
3.678	-0.154799
3.679	-0.12348
3.68	-0.135802
3.681	-0.263257
3.682	-0.262033
3.683	-0.061066
3.684	0.056943
3.685	-0.02896
3.686	-0.088737
3.687	0.052014
3.688	0.181634
3.689	0.047924
3.69	-0.112434
3.691	0.002674
3.692	0.162157
3.693	0.103347
3.694	-0.0146
3.695	-0.021333
3.696	-0.009495
3.697	-0.088807
3.698	-0.153728
3.699	-0.089455
3.7	-0.058636
3.701	-0.172388
3.702	-0.198865
3.703	-0.03948
3.704	0.054211
3.705	-0.032694
3.706	-0.081089
3.707	0.072574
3.708	0.209829
3.709	0.074389
3.71	-0.09025
3.711	0.035034
3.712	0.220449
3.713	0.178538
3.714	0.045521
3.715	-0.003721
3.716	-0.03647
3.717	-0.137309
3.718	-0.188941
3.719	-0.083626
3.72	-0.005075
3.721	-0.087675
3.722	-0.117369
3.723	0.004552
3.724	0.051879
3.725	-0.060927
3.726	-0.105477
3.727	0.075296
3.728	0.25394
3.729	0.164391
3.73	0.033762
3.731	0.157264
3.732	0.298851
3.733	0.199625
3.734	0.025246
3.735	-0.046523
3.736	-0.094895
3.737	-0.224298
3.738	-0.343104
3.739	-0.336872
3.74	-0.318015
3.741	-0.361861
3.742	-0.293643
3.743	-0.089205
3.744	0.003234
3.745	-0.082932
3.746	-0.093851
3.747	0.150695
3.748	0.43171
3.749	0.439371
3.75	0.308843
3.751	0.31287
3.752	0.320697
3.753	0.170228
3.754	0.015307
3.755	-0.023462
3.756	-0.061626
3.757	-0.221768
3.758	-0.424157
3.759	-0.527233
3.76	-0.557233
3.761	-0.541237
3.762	-0.371217
3.763	-0.106973
3.764	2e-06
3.765	-0.076984
3.766	-0.063182
3.767	0.213061
3.768	0.511254
3.769	0.5059
3.77	0.336381
3.771	0.298281
3.772	0.283879
3.773	0.136095
3.774	-0.005579
3.775	-0.037187
3.776	-0.071957
3.777	-0.204421
3.778	-0.320712
3.779	-0.293362
3.78	-0.245114
3.781	-0.287725
3.782	-0.267744
3.783	-0.129403
3.784	-0.064674
3.785	-0.113883
3.786	-0.051562
3.787	0.230369
3.788	0.435417
3.789	0.248409
3.79	-0.078342
3.791	-0.13515
3.792	-0.033869
3.793	-0.015264
3.794	-0.015354
3.795	0.02847
3.796	3.5e-05
3.797	-0.16844
3.798	-0.32661
3.799	-0.317207
3.8	-0.257358
3.801	-0.279683
3.802	-0.253302
3.803	-0.126411
3.804	-0.087339
3.805	-0.189267
3.806	-0.222166
3.807	-0.035194
3.808	0.199904
3.809	0.264242
3.81	0.311405
3.811	0.494139
3.812	0.529305
3.813	0.238782
3.814	-0.085439
3.815	-0.175211
3.816	-0.108642
3.817	-0.059501
3.818	-0.014677
3.819	0.074812
3.82	0.041701
3.821	-0.175
3.822	-0.276449
3.823	-0.127583
3.824	-0.001285
3.825	-0.064789
3.826	-0.131456
3.827	-0.02913
3.828	0.062845
3.829	-0.067582
3.83	-0.172286
3.831	0.011563
3.832	0.199125
3.833	0.117262
3.834	-0.034811
3.835	-0.040198
3.836	0.005943
3.837	-0.07874
3.838	-0.285055
3.839	-0.489116
3.84	-0.665339
3.841	-0.751736
3.842	-0.570305
3.843	-0.187777
3.844	0.052914
3.845	0.022851
3.846	-0.042203
3.847	0.053159
3.848	0.131219
3.849	-0.0252
3.85	-0.161513
3.851	0.011334
3.852	0.224281
3.853	0.181128
3.854	0.042012
3.855	0.007648
3.856	0.010444
3.857	-0.058474
3.858	-0.105514
3.859	-0.021612
3.86	0.029309
3.861	-0.077655
3.862	-0.124251
3.863	0.00046
3.864	0.066208
3.865	-0.040479
3.866	-0.112313
3.867	0.01063
3.868	0.121942
3.869	-0.020081
3.87	-0.175159
3.871	-0.039868
3.872	0.154287
3.873	0.132733
3.874	0.034846
3.875	0.022472
3.876	0.014067
3.877	-0.080888
3.878	-0.14366
3.879	-0.057618
3.88	0.001415
3.881	-0.104406
3.882	-0.156393
3.883	-0.033771
3.884	0.04031
3.885	-0.047992
3.886	-0.094921
3.887	0.056518
3.888	0.193917
3.889	0.064848
3.89	-0.094579
3.891	0.027956
3.892	0.212236
3.893	0.184812
3.894	0.074856
3.895	0.036712
3.896	-0.003918
3.897	-0.121211
3.898	-0.182833
3.899	-0.069848
3.9	0.031682
3.901	-0.036681
3.902	-0.082484
3.903	0.004985
3.904	0.025637
3.905	-0.097566
3.906	-0.134853
3.907	0.088553
3.908	0.369488
3.909	0.414854
3.91	0.349212
3.911	0.405728
3.912	0.423315
3.913	0.248833
3.914	0.06517
3.915	0.006909
3.916	-0.048454
3.917	-0.233723
3.918	-0.466466
3.919	-0.590088
3.92	-0.62343
3.921	-0.605318
3.922	-0.43425
3.923	-0.157324
3.924	-0.025484
3.925	-0.087674
3.926	-0.081884
3.927	0.175701
3.928	0.465972
3.929	0.472727
3.93	0.32533
3.931	0.306458
3.932	0.30901
3.933	0.182383
3.934	0.063502
3.935	0.043247
3.936	-0.004929
3.937	-0.176595
3.938	-0.340176
3.939	-0.338149
3.94	-0.276441
3.941	-0.286817
3.942	-0.248708
3.943	-0.112461
3.944	-0.060732
3.945	-0.131926
3.946	-0.096227
3.947	0.172242
3.948	0.402309
3.949	0.294201
3.95	0.084149
3.951	0.120947
3.952	0.20708
3.953	0.074242
3.954	-0.111307
3.955	-0.131263
3.956	-0.046799
3.957	-0.002213
3.958	0.029941
3.959	0.102162
3.96	0.050378
3.961	-0.18343
3.962	-0.292329
3.963	-0.130582
3.964	0.016651
3.965	-0.045836
3.966	-0.136514
3.967	-0.058258
3.968	0.037874
3.969	-0.057007
3.97	-0.119977
3.971	0.081882
3.972	0.254814
3.973	0.141885
3.974	-0.035991
3.975	-0.050092
3.976	0.015998
3.977	0.009584
3.978	-0.025522
3.979	-0.008732
3.98	-0.081815
3.981	-0.298849
3.982	-0.369738
3.983	-0.172359
3.984	-0.00053
3.985	-0.043323
3.986	-0.109039
3.987	0.017687
3.988	0.21055
3.989	0.251309
3.99	0.287358
3.991	0.485445
3.992	0.57503
3.993	0.355108
3.994	0.072986
3.995	-0.030594
3.996	-0.03352
3.997	-0.090853
3.998	-0.154378
3.999	-0.129124
4.0	-0.156274
4.001	-0.319211
4.002	-0.361858
4.003	-0.166141
4.004	-0.004608
4.005	-0.048564
4.006	-0.10536
4.007	0.024257
4.008	0.180653
4.009	0.107437
4.01	-0.029921
4.011	0.057599
4.012	0.20976
4.013	0.178487
4.014	0.075873
4.015	0.06118
4.016	0.048858
4.017	-0.09554
4.018	-0.300166
4.019	-0.418541
4.02	-0.499602
4.021	-0.582805
4.022	-0.483018
4.023	-0.177169
4.024	0.035299
4.025	0.002515
4.026	-0.059001
4.027	0.066845
4.028	0.229124
4.029	0.169844
4.03	0.047065
4.031	0.146797
4.032	0.306075
4.033	0.268091
4.034	0.137932
4.035	0.078017
4.036	0.022131
4.037	-0.125009
4.038	-0.246359
4.039	-0.198701
4.04	-0.126627
4.041	-0.178517
4.042	-0.175464
4.043	-0.018931
4.044	0.062335
4.045	-0.049063
4.046	-0.132839
4.047	0.01419
4.048	0.220201
4.049	0.196744
4.05	0.0723
4.051	0.131068
4.052	0.246172
4.053	0.200467
4.054	0.09699
4.055	0.063424
4.056	0.011576
4.057	-0.149278
4.058	-0.290307
4.059	-0.265363
4.06	-0.218446
4.061	-0.286069
4.062	-0.275711
4.063	-0.090734
4.064	0.02679
4.065	-0.050838
4.066	-0.104138
4.067	0.074167
4.068	0.307828
4.069	0.29028
4.07	0.138944
4.071	0.155888
4.072	0.247229
4.073	0.208477
4.074	0.124254
4.075	0.0981
4.076	0.035338
4.077	-0.144806
4.078	-0.297067
4.079	-0.260781
4.08	-0.179396
4.081	-0.213604
4.082	-0.203852
4.083	-0.059137
4.084	0.005993
4.085	-0.103105
4.086	-0.143689
4.087	0.111546
4.088	0.497251
4.089	0.663363
4.09	0.611673
4.091	0.563763
4.092	0.483652
4.093	0.291396
4.094	0.143857
4.095	0.144866
4.096	0.168669
4.097	0.115421
4.098	0.133893
4.099	0.352087
4.1	0.511137
4.101	0.378767
4.102	0.207916
4.103	0.214543
4.104	0.197451
4.105	0.012319
4.106	-0.136588
4.107	-0.0439
4.108	0.110916
4.109	0.002888
4.11	-0.252614
4.111	-0.296388
4.112	-0.180882
4.113	-0.160598
4.114	-0.181054
4.115	-0.07498
4.116	0.104221
4.117	0.214219
4.118	0.284683
4.119	0.37358
4.12	0.309945
4.121	0.048346
4.122	-0.056623
4.123	0.146956
4.124	0.297475
4.125	0.123466
4.126	-0.171353
4.127	-0.270866
4.128	-0.212922
4.129	-0.231255
4.13	-0.241385
4.131	-0.043612
4.132	0.150642
4.133	0.07694
4.134	-0.098041
4.135	-0.11104
4.136	0.012596
4.137	0.135726
4.138	0.303349
4.139	0.562986
4.14	0.65671
4.141	0.430318
4.142	0.221295
4.143	0.259196
4.144	0.270733
4.145	0.032518
4.146	-0.250589
4.147	-0.301308
4.148	-0.228935
4.149	-0.345897
4.15	-0.567828
4.151	-0.552726
4.152	-0.356427
4.153	-0.256268
4.154	-0.222208
4.155	-0.094438
4.156	0.080848
4.157	0.192749
4.158	0.317579
4.159	0.524486
4.16	0.571895
4.161	0.316799
4.162	0.103673
4.163	0.164243
4.164	0.217838
4.165	0.028578
4.166	-0.208842
4.167	-0.224425
4.168	-0.133691
4.169	-0.250162
4.17	-0.475782
4.171	-0.449358
4.172	-0.232728
4.173	-0.134657
4.174	-0.1391
4.175	-0.064823
4.176	0.06699
4.177	0.148529
4.178	0.248368
4.179	0.437622
4.18	0.483913
4.181	0.243244
4.182	0.048242
4.183	0.122352
4.184	0.187188
4.185	0.012898
4.186	-0.205295
4.187	-0.202833
4.188	-0.102648
4.189	-0.22476
4.19	-0.477534
4.191	-0.499763
4.192	-0.327455
4.193	-0.230376
4.194	-0.189461
4.195	-0.062835
4.196	0.091938
4.197	0.158795
4.198	0.217465
4.199	0.357947
4.2	0.365604
4.201	0.10824
4.202	-0.075804
4.203	0.035257
4.204	0.153063
4.205	0.029941
4.206	-0.156558
4.207	-0.147068
4.208	-0.05568
4.209	-0.186094
4.21	-0.433597
4.211	-0.437089
4.212	-0.24383
4.213	-0.137462
4.214	-0.10755
4.215	-0.012597
4.216	0.090543
4.217	0.08551
4.218	0.072839
4.219	0.21574
4.22	0.369344
4.221	0.322648
4.222	0.229732
4.223	0.260182
4.224	0.235766
4.225	0.009301
4.226	-0.221432
4.227	-0.217079
4.228	-0.112773
4.229	-0.225318
4.23	-0.459996
4.231	-0.457327
4.232	-0.255881
4.233	-0.134499
4.234	-0.090462
4.235	0.005891
4.236	0.092525
4.237	0.050037
4.238	-0.035022
4.239	-0.01888
4.24	-0.02182
4.241	-0.150062
4.242	-0.164255
4.243	0.052388
4.244	0.202347
4.245	0.080248
4.246	-0.108863
4.247	-0.107074
4.248	-0.051972
4.249	-0.280852
4.25	-0.678721
4.251	-0.779487
4.252	-0.531627
4.253	-0.260695
4.254	-0.080544
4.255	0.0745
4.256	0.156176
4.257	0.106538
4.258	0.075285
4.259	0.208077
4.26	0.298241
4.261	0.155763
4.262	0.038939
4.263	0.139995
4.264	0.205961
4.265	0.03825
4.266	-0.157224
4.267	-0.098792
4.268	0.12416
4.269	0.181266
4.27	0.067462
4.271	0.061364
4.272	0.153701
4.273	0.137191
4.274	0.047471
4.275	0.019993
4.276	0.003732
4.277	-0.092014
4.278	-0.137328
4.279	0.039809
4.28	0.265936
4.281	0.280262
4.282	0.206502
4.283	0.224516
4.284	0.188051
4.285	-0.026006
4.286	-0.208608
4.287	-0.114451
4.288	0.105132
4.289	0.051222
4.29	-0.279971
4.291	-0.475131
4.292	-0.388569
4.293	-0.228286
4.294	-0.086743
4.295	0.074419
4.296	0.199902
4.297	0.224686
4.298	0.249057
4.299	0.364608
4.3	0.378884
4.301	0.154807
4.302	-0.006587
4.303	0.121793
4.304	0.258649
4.305	0.108397
4.306	-0.173547
4.307	-0.255009
4.308	-0.126902
4.309	-0.047862
4.31	-0.032836
4.311	0.100147
4.312	0.23011
4.313	0.125716
4.314	-0.084228
4.315	-0.137287
4.316	-0.036998
4.317	0.062819
4.318	0.171197
4.319	0.359243
4.32	0.446867
4.321	0.278778
4.322	0.115015
4.323	0.179277
4.324	0.238816
4.325	0.05207
4.326	-0.211322
4.327	-0.253576
4.328	-0.130112
4.329	-0.157155
4.33	-0.329925
4.331	-0.337176
4.332	-0.184319
4.333	-0.135014
4.334	-0.178544
4.335	-0.129421
4.336	-0.00032
4.337	0.081121
4.338	0.150901
4.339	0.293861
4.34	0.335813
4.341	0.129099
4.342	-0.049561
4.343	0.038845
4.344	0.157252
4.345	0.042679
4.346	-0.158848
4.347	-0.167398
4.348	-0.048611
4.349	-0.116737
4.35	-0.345776
4.351	-0.388701
4.352	-0.225373
4.353	-0.12948
4.354	-0.127196
4.355	-0.061245
4.356	0.053037
4.357	0.099951
4.358	0.132014
4.359	0.254466
4.36	0.307553
4.361	0.134224
4.362	-0.018965
4.363	0.06756
4.364	0.168542
4.365	0.04238
4.366	-0.159932
4.367	-0.158965
4.368	-0.001153
4.369	0.034557
4.37	-0.040496
4.371	0.009883
4.372	0.117528
4.373	0.067296
4.374	-0.053754
4.375	-0.051119
4.376	0.028077
4.377	0.018397
4.378	-0.062723
4.379	-0.088755
4.38	-0.128199
4.381	-0.265628
4.382	-0.288465
4.383	-0.061065
4.384	0.147362
4.385	0.090796
4.386	-0.076603
4.387	-0.080308
4.388	0.012356
4.389	-0.102138
4.39	-0.379634
4.391	-0.451949
4.392	-0.275933
4.393	-0.122106
4.394	-0.051829
4.395	0.043864
4.396	0.128683
4.397	0.103426
4.398	0.060907
4.399	0.152084
4.4	0.238895
4.401	0.137785
4.402	0.040398
4.403	0.137207
4.404	0.222405
4.405	0.085912
4.406	-0.115959
4.407	-0.124604
4.408	-0.01757
4.409	-0.098586
4.41	-0.326135
4.411	-0.346803
4.412	-0.143522
4.413	-0.005232
4.414	0.014404
4.415	0.046992
4.416	0.075274
4.417	0.013113
4.418	-0.036691
4.419	0.079759
4.42	0.209559
4.421	0.1404
4.422	0.047249
4.423	0.12929
4.424	0.198886
4.425	0.058771
4.426	-0.124443
4.427	-0.082448
4.428	0.098445
4.429	0.04756
4.43	-0.282759
4.431	-0.496316
4.432	-0.403839
4.433	-0.214432
4.434	-0.063875
4.435	0.071115
4.436	0.132533
4.437	0.056043
4.438	-0.01677
4.439	0.086781
4.44	0.211009
4.441	0.137669
4.442	0.039774
4.443	0.115441
4.444	0.178902
4.445	0.037163
4.446	-0.139611
4.447	-0.0724
4.448	0.181713
4.449	0.289767
4.45	0.191108
4.451	0.158919
4.452	0.224504
4.453	0.148639
4.454	-0.056486
4.455	-0.152446
4.456	-0.088625
4.457	-0.001224
4.458	0.09059
4.459	0.255828
4.46	0.351938
4.461	0.21583
4.462	0.065282
4.463	0.146803
4.464	0.26142
4.465	0.121933
4.466	-0.160396
4.467	-0.272018
4.468	-0.194038
4.469	-0.203666
4.47	-0.337426
4.471	-0.309326
4.472	-0.10462
4.473	-0.019911
4.474	-0.092106
4.475	-0.100718
4.476	0.001489
4.477	0.080865
4.478	0.110583
4.479	0.140359
4.48	0.052811
4.481	-0.207088
4.482	-0.330001
4.483	-0.106597
4.484	0.161986
4.485	0.133123
4.486	-0.083775
4.487	-0.155135
4.488	-0.032908
4.489	0.032163
4.49	-0.009854
4.491	0.051298
4.492	0.178904
4.493	0.13261
4.494	-0.041181
4.495	-0.105675
4.496	-0.034133
4.497	0.042478
4.498	0.143373
4.499	0.38173
4.5	0.607952
4.501	0.556235
4.502	0.347031
4.503	0.269318
4.504	0.248165
4.505	0.067316
4.506	-0.175088
4.507	-0.222715
4.508	-0.115609
4.509	-0.165669
4.51	-0.400764
4.511	-0.479079
4.512	-0.315868
4.513	-0.179578
4.514	-0.149633
4.515	-0.081993
4.516	0.026387
4.517	0.058915
4.518	0.055379
4.519	0.146651
4.52	0.222083
4.521	0.095888
4.522	-0.057584
4.523	0.007808
4.524	0.137242
4.525	0.075603
4.526	-0.075579
4.527	-0.030647
4.528	0.202434
4.529	0.290134
4.53	0.11073
4.531	-0.045796
4.532	-0.019581
4.533	0.014568
4.534	-0.015927
4.535	-0.004556
4.536	0.039423
4.537	0.02244
4.538	0.013136
4.539	0.148098
4.54	0.291538
4.541	0.211864
4.542	0.04689
4.543	0.049758
4.544	0.109064
4.545	0.00692
4.546	-0.147269
4.547	-0.073331
4.548	0.228954
4.549	0.447906
4.55	0.442552
4.551	0.396057
4.552	0.371265
4.553	0.235375
4.554	0.036177
4.555	-0.052625
4.556	-0.049787
4.557	-0.100435
4.558	-0.192385
4.559	-0.191892
4.56	-0.152932
4.561	-0.226072
4.562	-0.287279
4.563	-0.150563
4.564	0.029355
4.565	0.022378
4.566	-0.072746
4.567	-0.011943
4.568	0.14649
4.569	0.079196
4.57	-0.227462
4.571	-0.385372
4.572	-0.259365
4.573	-0.103772
4.574	-0.034445
4.575	0.037273
4.576	0.089033
4.577	0.014048
4.578	-0.131719
4.579	-0.179172
4.58	-0.158014
4.581	-0.217324
4.582	-0.258126
4.583	-0.120437
4.584	0.043258
4.585	0.025174
4.586	-0.058305
4.587	0.049767
4.588	0.304854
4.589	0.364425
4.59	0.134587
4.591	-0.055751
4.592	-0.027466
4.593	0.03706
4.594	0.039471
4.595	0.056843
4.596	0.059463
4.597	-0.052641
4.598	-0.190874
4.599	-0.140223
4.6	0.057875
4.601	0.134867
4.602	0.075555
4.603	0.072796
4.604	0.086557
4.605	-0.045831
4.606	-0.240027
4.607	-0.26419
4.608	-0.119765
4.609	-0.058404
4.61	-0.133457
4.611	-0.099817
4.612	0.067593
4.613	0.103435
4.614	-0.018625
4.615	-0.065119
4.616	0.020063
4.617	0.079977
4.618	0.053952
4.619	0.014789
4.62	-0.086897
4.621	-0.316763
4.622	-0.434278
4.623	-0.211377
4.624	0.110078
4.625	0.163139
4.626	-0.011123
4.627	-0.099539
4.628	-0.014099
4.629	0.031641
4.63	-0.016417
4.631	0.068997
4.632	0.278062
4.633	0.307678
4.634	0.124644
4.635	-0.012506
4.636	-0.016034
4.637	-0.010217
4.638	-0.010782
4.639	0.098937
4.64	0.238036
4.641	0.188115
4.642	0.04944
4.643	0.084409
4.644	0.19655
4.645	0.118452
4.646	-0.096034
4.647	-0.173913
4.648	-0.088252
4.649	-0.108769
4.65	-0.286568
4.651	-0.293992
4.652	-0.046101
4.653	0.120159
4.654	0.068685
4.655	0.001198
4.656	0.009398
4.657	-0.006788
4.658	-0.056962
4.659	-0.043229
4.66	-0.037729
4.661	-0.175305
4.662	-0.278964
4.663	-0.120866
4.664	0.113625
4.665	0.114521
4.666	-0.058154
4.667	-0.112354
4.668	-0.01087
4.669	-0.030162
4.67	-0.233205
4.671	-0.286249
4.672	-0.075982
4.673	0.084932
4.674	0.05264
4.675	-0.000513
4.676	0.003115
4.677	-0.016471
4.678	-0.0231
4.679	0.124091
4.68	0.332824
4.681	0.344466
4.682	0.209343
4.683	0.173953
4.684	0.18336
4.685	0.031728
4.686	-0.186579
4.687	-0.174544
4.688	0.109604
4.689	0.350139
4.69	0.338072
4.691	0.247903
4.692	0.220508
4.693	0.13773
4.694	-0.011462
4.695	-0.072837
4.696	-0.046024
4.697	-0.073835
4.698	-0.156395
4.699	-0.138869
4.7	-0.030529
4.701	-0.016939
4.702	-0.068198
4.703	0.001075
4.704	0.108049
4.705	0.042969
4.706	-0.111932
4.707	-0.098361
4.708	0.065346
4.709	0.047976
4.71	-0.238957
4.711	-0.426295
4.712	-0.313388
4.713	-0.141711
4.714	-0.067952
4.715	-0.000431
4.716	0.06646
4.717	0.02393
4.718	-0.095864
4.719	-0.118791
4.72	-0.043931
4.721	-0.055518
4.722	-0.125364
4.723	-0.064468
4.724	0.048604
4.725	0.004164
4.726	-0.112966
4.727	-0.024426
4.728	0.290555
4.729	0.505392
4.73	0.428149
4.731	0.274117
4.732	0.214561
4.733	0.130287
4.734	-0.010984
4.735	-0.063486
4.736	0.002224
4.737	0.074561
4.738	0.126162
4.739	0.238556
4.74	0.333909
4.741	0.203006
4.742	-0.037136
4.743	-0.048628
4.744	0.112208
4.745	0.107026
4.746	-0.088624
4.747	-0.191509
4.748	-0.101252
4.749	-0.050859
4.75	-0.154789
4.751	-0.16827
4.752	-0.000935
4.753	0.070241
4.754	-0.044077
4.755	-0.106559
4.756	-0.015335
4.757	0.081337
4.758	0.090274
4.759	0.073598
4.76	0.006495
4.761	-0.204635
4.762	-0.373933
4.763	-0.228345
4.764	0.070056
4.765	0.143912
4.766	-0.019751
4.767	-0.118756
4.768	-0.036727
4.769	0.009209
4.77	-0.083207
4.771	-0.071302
4.772	0.118672
4.773	0.191788
4.774	0.054222
4.775	-0.047787
4.776	-0.002689
4.777	0.049316
4.778	0.031286
4.779	0.031139
4.78	0.034894
4.781	-0.086849
4.782	-0.212939
4.783	-0.098176
4.784	0.130091
4.785	0.145927
4.786	-0.0426
4.787	-0.149381
4.788	-0.099591
4.789	-0.157904
4.79	-0.422754
4.791	-0.545566
4.792	-0.335931
4.793	-0.099969
4.794	-0.040756
4.795	-0.004648
4.796	0.09085
4.797	0.127715
4.798	0.064777
4.799	0.009759
4.8	-0.045335
4.801	-0.214698
4.802	-0.348495
4.803	-0.190099
4.804	0.110021
4.805	0.190782
4.806	0.039749
4.807	-0.056871
4.808	-0.012158
4.809	-0.081836
4.81	-0.361975
4.811	-0.49398
4.812	-0.274213
4.813	-0.016573
4.814	0.050927
4.815	0.069529
4.816	0.133837
4.817	0.146694
4.818	0.079752
4.819	0.042423
4.82	0.016749
4.821	-0.13198
4.822	-0.271669
4.823	-0.143843
4.824	0.120217
4.825	0.177746
4.826	0.028776
4.827	-0.02092
4.828	0.138232
4.829	0.221046
4.83	0.020011
4.831	-0.18706
4.832	-0.13579
4.833	-0.018403
4.834	-0.009577
4.835	0.007136
4.836	0.085332
4.837	0.118075
4.838	0.10284
4.839	0.181571
4.84	0.31892
4.841	0.279832
4.842	0.103454
4.843	0.07837
4.844	0.1792
4.845	0.129749
4.846	-0.063017
4.847	-0.102758
4.848	0.129572
4.849	0.371406
4.85	0.389256
4.851	0.342824
4.852	0.381474
4.853	0.325963
4.854	0.107146
4.855	-0.06355
4.856	-0.087669
4.857	-0.06822
4.858	-0.008
4.859	0.251014
4.86	0.649777
4.861	0.819656
4.862	0.646763
4.863	0.42319
4.864	0.268087
4.865	0.032392
4.866	-0.24018
4.867	-0.279388
4.868	-0.011508
4.869	0.260041
4.87	0.275449
4.871	0.193944
4.872	0.195579
4.873	0.140374
4.874	-0.032433
4.875	-0.141041
4.876	-0.125735
4.877	-0.119873
4.878	-0.146296
4.879	-0.023282
4.88	0.280842
4.881	0.467996
4.882	0.392224
4.883	0.27548
4.884	0.207766
4.885	0.041521
4.886	-0.184849
4.887	-0.236015
4.888	-0.095075
4.889	-0.076109
4.89	-0.317903
4.891	-0.47797
4.892	-0.331798
4.893	-0.143368
4.894	-0.106036
4.895	-0.091078
4.896	-0.034066
4.897	-0.040202
4.898	-0.107336
4.899	-0.040363
4.9	0.203458
4.901	0.341503
4.902	0.246205
4.903	0.147998
4.904	0.125596
4.905	0.013095
4.906	-0.157834
4.907	-0.13965
4.908	0.104668
4.909	0.24203
4.91	0.050548
4.911	-0.183573
4.912	-0.184434
4.913	-0.134284
4.914	-0.191596
4.915	-0.203081
4.916	-0.072312
4.917	0.073789
4.918	0.120724
4.919	0.110416
4.92	0.045357
4.921	-0.171686
4.922	-0.388282
4.923	-0.283327
4.924	0.048587
4.925	0.190753
4.926	0.041929
4.927	-0.120267
4.928	-0.140487
4.929	-0.224754
4.93	-0.489794
4.931	-0.59704
4.932	-0.342402
4.933	-0.081358
4.934	-0.065677
4.935	-0.086123
4.936	0.024108
4.937	0.147175
4.938	0.167201
4.939	0.147755
4.94	0.112108
4.941	-0.053533
4.942	-0.251675
4.943	-0.20155
4.944	0.02841
4.945	0.09544
4.946	-0.047188
4.947	-0.117722
4.948	0.018608
4.949	0.131664
4.95	0.054672
4.951	0.035283
4.952	0.218508
4.953	0.297132
4.954	0.112974
4.955	-0.079162
4.956	-0.110188
4.957	-0.100686
4.958	-0.152954
4.959	-0.152406
4.96	-0.03208
4.961	0.007325
4.962	-0.105018
4.963	-0.117804
4.964	0.017236
4.965	0.043614
4.966	-0.087299
4.967	-0.132383
4.968	0.009341
4.969	0.090891
4.97	-0.054619
4.971	-0.157097
4.972	-0.020707
4.973	0.094805
4.974	0.020751
4.975	-0.05351
4.976	-0.017256
4.977	-0.009414
4.978	-0.132954
4.979	-0.272931
4.98	-0.32516
4.981	-0.392172
4.982	-0.472736
4.983	-0.354602
4.984	-0.075074
4.985	0.063634
4.986	0.006764
4.987	0.01019
4.988	0.18614
4.989	0.258986
4.99	0.017526
4.991	-0.205188
4.992	-0.076795
4.993	0.140659
4.994	0.147933
4.995	0.067247
4.996	0.04113
4.997	-0.011632
4.998	-0.142226
4.999	-0.19619
5.0	-0.084712
5.001	-0.017724
5.002	-0.101822
5.003	-0.108835
5.004	0.022749
5.005	0.057763
5.006	-0.048812
5.007	-0.049993
5.008	0.174528
5.009	0.37006
5.01	0.295872
5.011	0.17038
5.012	0.241544
5.013	0.308733
5.014	0.190776
5.015	0.050686
5.016	0.003321
5.017	-0.067326
5.018	-0.23889
5.019	-0.378493
5.02	-0.383207
5.021	-0.383794
5.022	-0.419424
5.023	-0.299029
5.024	-0.04605
5.025	0.066568
5.026	-0.000775
5.027	0.005371
5.028	0.193629
5.029	0.286519
5.03	0.060775
5.031	-0.167033
5.032	-0.063469
5.033	0.135475
5.034	0.152489
5.035	0.091507
5.036	0.059941
5.037	-0.031343
5.038	-0.225517
5.039	-0.371628
5.04	-0.367662
5.041	-0.35119
5.042	-0.369547
5.043	-0.247821
5.044	-0.019975
5.045	0.056835
5.046	-0.021734
5.047	0.039362
5.048	0.388436
5.049	0.731312
5.05	0.706177
5.051	0.464412
5.052	0.349451
5.053	0.30065
5.054	0.169732
5.055	0.05441
5.056	0.007258
5.057	-0.080889
5.058	-0.226893
5.059	-0.242852
5.06	-0.050347
5.061	0.090739
5.062	0.023363
5.063	-0.03464
5.064	0.016111
5.065	-0.012192
5.066	-0.151568
5.067	-0.164033
5.068	0.093824
5.069	0.405244
5.07	0.492545
5.071	0.475754
5.072	0.539483
5.073	0.482143
5.074	0.184157
5.075	-0.079339
5.076	-0.113736
5.077	-0.062596
5.078	-0.117898
5.079	-0.250799
5.08	-0.357096
5.081	-0.47636
5.082	-0.56469
5.083	-0.40475
5.084	-0.060199
5.085	0.107136
5.086	0.005813
5.087	-0.056678
5.088	0.159856
5.089	0.468834
5.09	0.56575
5.091	0.547155
5.092	0.597586
5.093	0.52143
5.094	0.200515
5.095	-0.091209
5.096	-0.155997
5.097	-0.116862
5.098	-0.116163
5.099	-0.066147
5.1	0.105611
5.101	0.165685
5.102	-0.009155
5.103	-0.117235
5.104	-0.012317
5.105	0.046396
5.106	-0.062383
5.107	-0.124197
5.108	-0.001186
5.109	0.084352
5.11	-0.062178
5.111	-0.163423
5.112	0.016697
5.113	0.174389
5.114	0.072086
5.115	-0.070627
5.116	-0.06616
5.117	-0.030887
5.118	-0.10731
5.119	-0.212718
5.12	-0.23445
5.121	-0.295703
5.122	-0.435836
5.123	-0.396078
5.124	-0.135589
5.125	0.03152
5.126	-0.00831
5.127	-0.00471
5.128	0.213473
5.129	0.403187
5.13	0.281016
5.131	0.080551
5.132	0.123655
5.133	0.209687
5.134	0.105484
5.135	-0.023678
5.136	-0.02726
5.137	-0.018073
5.138	-0.099524
5.139	-0.132253
5.14	0.009088
5.141	0.106518
5.142	-0.00607
5.143	-0.08402
5.144	0.00816
5.145	0.048913
5.146	-0.045441
5.147	-0.05267
5.148	0.141531
5.149	0.24519
5.15	-0.013096
5.151	-0.301425
5.152	-0.210976
5.153	0.021901
5.154	0.063271
5.155	0.020673
5.156	0.037677
5.157	0.011192
5.158	-0.155944
5.159	-0.320128
5.16	-0.31719
5.161	-0.277469
5.162	-0.318725
5.163	-0.257469
5.164	-0.047676
5.165	0.059414
5.166	-0.00573
5.167	-0.000825
5.168	0.199143
5.169	0.299915
5.17	0.020301
5.171	-0.305798
5.172	-0.24212
5.173	0.002292
5.174	0.085935
5.175	0.079987
5.176	0.097855
5.177	0.036764
5.178	-0.173336
5.179	-0.35607
5.18	-0.331812
5.181	-0.245321
5.182	-0.249343
5.183	-0.188169
5.184	-0.013852
5.185	0.048367
5.186	-0.043777
5.187	-0.028217
5.188	0.241711
5.189	0.490723
5.19	0.405599
5.191	0.208651
5.192	0.240784
5.193	0.324916
5.194	0.227842
5.195	0.096631
5.196	0.073862
5.197	0.061808
5.198	-0.045324
5.199	-0.167006
5.2	-0.219081
5.201	-0.320315
5.202	-0.466498
5.203	-0.37465
5.204	-0.036564
5.205	0.163005
5.206	0.059814
5.207	-0.083486
5.208	-0.036442
5.209	0.025346
5.21	-0.119403
5.211	-0.193896
5.212	0.072664
5.213	0.321853
5.214	0.224736
5.215	0.016986
5.216	-0.031482
5.217	0.001474
5.218	-0.04801
5.219	-0.135257
5.22	-0.164839
5.221	-0.240926
5.222	-0.371997
5.223	-0.298357
5.224	-0.009676
5.225	0.141983
5.226	0.025449
5.227	-0.082467
5.228	0.053282
5.229	0.254825
5.23	0.256254
5.231	0.234676
5.232	0.406781
5.233	0.489263
5.234	0.262526
5.235	-0.008477
5.236	-0.082578
5.237	-0.056107
5.238	-0.073599
5.239	-0.053377
5.24	0.088295
5.241	0.139125
5.242	-0.020788
5.243	-0.107119
5.244	0.011904
5.245	0.067924
5.246	-0.061206
5.247	-0.129164
5.248	0.059373
5.249	0.290574
5.25	0.274327
5.251	0.190322
5.252	0.2935
5.253	0.350853
5.254	0.159828
5.255	-0.044715
5.256	-0.066371
5.257	-0.030795
5.258	-0.09857
5.259	-0.194996
5.26	-0.200059
5.261	-0.232492
5.262	-0.353666
5.263	-0.328499
5.264	-0.105541
5.265	0.018806
5.266	-0.067393
5.267	-0.097925
5.268	0.149537
5.269	0.48736
5.27	0.608051
5.271	0.601653
5.272	0.651661
5.273	0.57097
5.274	0.250804
5.275	-0.035888
5.276	-0.101734
5.277	-0.084689
5.278	-0.140967
5.279	-0.175195
5.28	-0.073865
5.281	-0.032012
5.282	-0.181049
5.283	-0.251704
5.284	-0.108652
5.285	-0.008544
5.286	-0.074962
5.287	-0.080278
5.288	0.147413
5.289	0.376351
5.29	0.313998
5.291	0.160076
5.292	0.208549
5.293	0.265754
5.294	0.131026
5.295	-0.006159
5.296	0.001814
5.297	0.011863
5.298	-0.128445
5.299	-0.316449
5.3	-0.388287
5.301	-0.433601
5.302	-0.522137
5.303	-0.445932
5.304	-0.169356
5.305	0.01207
5.306	-0.017081
5.307	-0.012889
5.308	0.211052
5.309	0.434038
5.31	0.370094
5.311	0.223051
5.312	0.288719
5.313	0.364774
5.314	0.233031
5.315	0.073983
5.316	0.04088
5.317	0.006755
5.318	-0.149196
5.319	-0.277848
5.32	-0.204136
5.321	-0.101425
5.322	-0.152953
5.323	-0.166064
5.324	-0.02798
5.325	0.040696
5.326	-0.047132
5.327	-0.061903
5.328	0.14011
5.329	0.289886
5.33	0.09733
5.331	-0.152946
5.332	-0.072627
5.333	0.127397
5.334	0.145549
5.335	0.094302
5.336	0.099738
5.337	0.043231
5.338	-0.16291
5.339	-0.331459
5.34	-0.263433
5.341	-0.136653
5.342	-0.161144
5.343	-0.164241
5.344	-0.029645
5.345	0.034667
5.346	-0.051248
5.347	-0.053608
5.348	0.174521
5.349	0.359148
5.35	0.193132
5.351	-0.055242
5.352	0.003554
5.353	0.177197
5.354	0.182205
5.355	0.128336
5.356	0.122651
5.357	0.036515
5.358	-0.208353
5.359	-0.406743
5.36	-0.348321
5.361	-0.209482
5.362	-0.20465
5.363	-0.175554
5.364	-0.025379
5.365	0.032021
5.366	-0.0752
5.367	-0.103585
5.368	0.115802
5.369	0.364577
5.37	0.372267
5.371	0.312948
5.372	0.394625
5.373	0.358841
5.374	0.051318
5.375	-0.199808
5.376	-0.141531
5.377	0.069273
5.378	0.191469
5.379	0.249635
5.38	0.342164
5.381	0.300735
5.382	0.057229
5.383	-0.042439
5.384	0.139375
5.385	0.245674
5.386	0.057895
5.387	-0.18747
5.388	-0.231553
5.389	-0.223012
5.39	-0.413862
5.391	-0.578345
5.392	-0.404387
5.393	-0.144231
5.394	-0.107651
5.395	-0.127464
5.396	0.005927
5.397	0.18022
5.398	0.223074
5.399	0.217043
5.4	0.293378
5.401	0.286056
5.402	0.099242
5.403	0.037324
5.404	0.215665
5.405	0.291803
5.406	0.07809
5.407	-0.169419
5.408	-0.18901
5.409	-0.13811
5.41	-0.284825
5.411	-0.41797
5.412	-0.235002
5.413	0.006062
5.414	-0.000316
5.415	-0.074435
5.416	0.003877
5.417	0.130478
5.418	0.145192
5.419	0.148546
5.42	0.28177
5.421	0.358412
5.422	0.231062
5.423	0.160988
5.424	0.272211
5.425	0.271466
5.426	0.01366
5.427	-0.231522
5.428	-0.211694
5.429	-0.112608
5.43	-0.24415
5.431	-0.419948
5.432	-0.311597
5.433	-0.115901
5.434	-0.10493
5.435	-0.127705
5.436	-0.013091
5.437	0.12303
5.438	0.153269
5.439	0.22063
5.44	0.46011
5.441	0.604858
5.442	0.439491
5.443	0.259726
5.444	0.272824
5.445	0.228732
5.446	-0.019064
5.447	-0.220408
5.448	-0.152835
5.449	-0.046862
5.45	-0.255077
5.451	-0.563752
5.452	-0.524887
5.453	-0.263436
5.454	-0.132989
5.455	-0.093044
5.456	0.014204
5.457	0.115258
5.458	0.114639
5.459	0.168382
5.46	0.417406
5.461	0.591873
5.462	0.453975
5.463	0.27424
5.464	0.260993
5.465	0.187956
5.466	-0.069019
5.467	-0.25077
5.468	-0.134277
5.469	0.050352
5.47	-0.053064
5.471	-0.272211
5.472	-0.245444
5.473	-0.117892
5.474	-0.132603
5.475	-0.148998
5.476	-0.027396
5.477	0.094746
5.478	0.089785
5.479	0.112815
5.48	0.314788
5.481	0.438458
5.482	0.264095
5.483	0.08429
5.484	0.114282
5.485	0.111387
5.486	-0.070544
5.487	-0.187439
5.488	-0.027858
5.489	0.167791
5.49	0.042994
5.491	-0.213786
5.492	-0.218582
5.493	-0.102692
5.494	-0.11103
5.495	-0.119455
5.496	-0.003669
5.497	0.105134
5.498	0.110469
5.499	0.198642
5.5	0.499115
5.501	0.668613
5.502	0.446618
5.503	0.205039
5.504	0.233914
5.505	0.245764
5.506	0.00511
5.507	-0.266923
5.508	-0.30412
5.509	-0.260238
5.51	-0.425811
5.511	-0.6038
5.512	-0.456082
5.513	-0.20408
5.514	-0.177386
5.515	-0.222492
5.516	-0.096158
5.517	0.110381
5.518	0.196503
5.519	0.203749
5.52	0.254225
5.521	0.204617
5.522	-0.018989
5.523	-0.096689
5.524	0.100423
5.525	0.218793
5.526	0.038934
5.527	-0.197389
5.528	-0.219956
5.529	-0.187969
5.53	-0.393052
5.531	-0.622653
5.532	-0.505273
5.533	-0.235057
5.534	-0.151907
5.535	-0.145275
5.536	-0.009332
5.537	0.159559
5.538	0.182719
5.539	0.13136
5.54	0.149823
5.541	0.101919
5.542	-0.093306
5.543	-0.1332
5.544	0.092425
5.545	0.224121
5.546	0.050824
5.547	-0.171069
5.548	-0.148361
5.549	-0.009872
5.55	-0.053373
5.551	-0.147977
5.552	-0.007984
5.553	0.171615
5.554	0.10665
5.555	-0.039628
5.556	-0.028372
5.557	0.055668
5.558	0.034508
5.559	-0.017158
5.56	0.046043
5.561	0.067305
5.562	-0.075013
5.563	-0.104096
5.564	0.10139
5.565	0.209478
5.566	0.025901
5.567	-0.190422
5.568	-0.152407
5.569	-0.00369
5.57	-0.066473
5.571	-0.22272
5.572	-0.153963
5.573	0.007638
5.574	0.002355
5.575	-0.05226
5.576	0.016899
5.577	0.103418
5.578	0.057708
5.579	-0.003493
5.58	0.087622
5.581	0.162044
5.582	0.057437
5.583	0.015589
5.584	0.165539
5.585	0.215824
5.586	0.002942
5.587	-0.210131
5.588	-0.145762
5.589	0.039147
5.59	0.00642
5.591	-0.136384
5.592	-0.070146
5.593	0.077863
5.594	0.049424
5.595	-0.040233
5.596	-0.014003
5.597	0.042069
5.598	0.011787
5.599	0.040507
5.6	0.275185
5.601	0.454775
5.602	0.338921
5.603	0.192389
5.604	0.221708
5.605	0.188649
5.606	-0.053807
5.607	-0.250043
5.608	-0.14328
5.609	0.079354
5.61	0.044789
5.611	-0.15461
5.612	-0.169053
5.613	-0.06554
5.614	-0.070016
5.615	-0.09492
5.616	-0.014668
5.617	0.060722
5.618	0.024502
5.619	0.039044
5.62	0.259201
5.621	0.423604
5.622	0.289761
5.623	0.126483
5.624	0.152016
5.625	0.13805
5.626	-0.061374
5.627	-0.200519
5.628	-0.047927
5.629	0.165997
5.63	0.029159
5.631	-0.333197
5.632	-0.444239
5.633	-0.285948
5.634	-0.154225
5.635	-0.078861
5.636	0.030077
5.637	0.08967
5.638	0.024614
5.639	0.011774
5.64	0.206546
5.641	0.343305
5.642	0.188873
5.643	0.051671
5.644	0.167735
5.645	0.239797
5.646	0.024789
5.647	-0.250879
5.648	-0.282028
5.649	-0.181815
5.65	-0.267931
5.651	-0.425084
5.652	-0.319241
5.653	-0.100645
5.654	-0.095626
5.655	-0.193044
5.656	-0.134096
5.657	0.037067
5.658	0.13577
5.659	0.178744
5.66	0.246345
5.661	0.169456
5.662	-0.114085
5.663	-0.235256
5.664	-0.021111
5.665	0.16021
5.666	0.035864
5.667	-0.176232
5.668	-0.177349
5.669	-0.088286
5.67	-0.22493
5.671	-0.451649
5.672	-0.399436
5.673	-0.184262
5.674	-0.127638
5.675	-0.156851
5.676	-0.062299
5.677	0.093378
5.678	0.143675
5.679	0.144978
5.68	0.220336
5.681	0.213738
5.682	0.018534
5.683	-0.068796
5.684	0.099492
5.685	0.202156
5.686	0.025274
5.687	-0.198167
5.688	-0.190724
5.689	-0.096549
5.69	-0.236904
5.691	-0.467016
5.692	-0.40758
5.693	-0.171377
5.694	-0.088965
5.695	-0.106072
5.696	-0.026304
5.697	0.090017
5.698	0.09088
5.699	0.05101
5.7	0.105582
5.701	0.094893
5.702	-0.098979
5.703	-0.178865
5.704	0.013491
5.705	0.157499
5.706	0.027273
5.707	-0.151903
5.708	-0.098848
5.709	0.038373
5.71	-0.111764
5.711	-0.465359
5.712	-0.57621
5.713	-0.394818
5.714	-0.215697
5.715	-0.097637
5.716	0.055406
5.717	0.165175
5.718	0.116511
5.719	0.035145
5.72	0.092028
5.721	0.128206
5.722	-0.011725
5.723	-0.073956
5.724	0.091705
5.725	0.191053
5.726	0.024881
5.727	-0.172015
5.728	-0.11145
5.729	0.084666
5.73	0.080433
5.731	-0.060577
5.732	-0.016029
5.733	0.140692
5.734	0.137596
5.735	0.036622
5.736	0.017898
5.737	0.023568
5.738	-0.060879
5.739	-0.097651
5.74	0.096212
5.741	0.317062
5.742	0.290204
5.743	0.187458
5.744	0.213606
5.745	0.186624
5.746	-0.036115
5.747	-0.225599
5.748	-0.132121
5.749	0.06218
5.75	-0.043452
5.751	-0.386878
5.752	-0.530055
5.753	-0.422299
5.754	-0.344586
5.755	-0.313042
5.756	-0.168835
5.757	0.042706
5.758	0.16849
5.759	0.235181
5.76	0.304675
5.761	0.187442
5.762	-0.158966
5.763	-0.3044
5.764	-0.039574
5.765	0.222989
5.766	0.124065
5.767	-0.152828
5.768	-0.247302
5.769	-0.162621
5.77	-0.152307
5.771	-0.160352
5.772	0.038399
5.773	0.255144
5.774	0.183048
5.775	-0.035339
5.776	-0.094473
5.777	0.00725
5.778	0.106036
5.779	0.223353
5.78	0.432387
5.781	0.511476
5.782	0.294802
5.783	0.101431
5.784	0.182344
5.785	0.264112
5.786	0.077902
5.787	-0.192997
5.788	-0.2458
5.789	-0.164469
5.79	-0.271882
5.791	-0.497521
5.792	-0.473258
5.793	-0.243764
5.794	-0.134127
5.795	-0.13665
5.796	-0.054405
5.797	0.080507
5.798	0.126734
5.799	0.158444
5.8	0.301996
5.801	0.352056
5.802	0.120789
5.803	-0.081671
5.804	0.021196
5.805	0.173914
5.806	0.088529
5.807	-0.084126
5.808	-0.050564
5.809	0.123826
5.81	0.117479
5.811	-0.050568
5.812	-0.049771
5.813	0.111036
5.814	0.147499
5.815	0.061758
5.816	0.041886
5.817	0.07131
5.818	0.026579
5.819	-0.017165
5.82	0.080117
5.821	0.163655
5.822	0.051901
5.823	-0.040404
5.824	0.079028
5.825	0.175954
5.826	0.028814
5.827	-0.173011
5.828	-0.123286
5.829	0.126843
5.83	0.269931
5.831	0.285166
5.832	0.379039
5.833	0.455185
5.834	0.299439
5.835	0.045475
5.836	-0.062349
5.837	-0.052832
5.838	-0.079515
5.839	-0.097592
5.84	0.006751
5.841	0.06689
5.842	-0.084117
5.843	-0.198431
5.844	-0.061496
5.845	0.087061
5.846	0.005292
5.847	-0.137503
5.848	-0.057555
5.849	0.15778
5.85	0.161934
5.851	-0.03761
5.852	-0.093379
5.853	0.020752
5.854	0.043689
5.855	-0.029388
5.856	-0.031547
5.857	0.01263
5.858	-0.016658
5.859	-0.048786
5.86	0.044461
5.861	0.106353
5.862	-0.034628
5.863	-0.14989
5.864	-0.034502
5.865	0.085487
5.866	-0.011641
5.867	-0.151201
5.868	-0.052685
5.869	0.207243
5.87	0.305085
5.871	0.231304
5.872	0.240157
5.873	0.288403
5.874	0.173291
5.875	-0.009048
5.876	-0.060316
5.877	-0.026119
5.878	-0.051208
5.879	-0.077896
5.88	0.023866
5.881	0.100789
5.882	-0.031555
5.883	-0.159049
5.884	-0.06521
5.885	0.050572
5.886	-0.024115
5.887	-0.131766
5.888	-0.024125
5.889	0.184076
5.89	0.140881
5.891	-0.1317
5.892	-0.25648
5.893	-0.166505
5.894	-0.097136
5.895	-0.076906
5.896	0.003754
5.897	0.076319
5.898	0.001286
5.899	-0.153403
5.9	-0.21172
5.901	-0.225881
5.902	-0.317076
5.903	-0.326509
5.904	-0.128016
5.905	0.049964
5.906	0.003888
5.907	-0.101275
5.908	-0.000873
5.909	0.233815
5.91	0.307883
5.911	0.238945
5.912	0.279824
5.913	0.364659
5.914	0.269322
5.915	0.079018
5.916	-0.007118
5.917	-0.030906
5.918	-0.139015
5.919	-0.261248
5.92	-0.200299
5.921	-0.031717
5.922	0.006803
5.923	-0.027184
5.924	0.035724
5.925	0.084889
5.926	-0.023215
5.927	-0.136407
5.928	-0.041212
5.929	0.115914
5.93	-0.030918
5.931	-0.420699
5.932	-0.570297
5.933	-0.35534
5.934	-0.105511
5.935	0.018208
5.936	0.09468
5.937	0.101188
5.938	-0.052915
5.939	-0.268856
5.94	-0.352466
5.941	-0.354869
5.942	-0.414501
5.943	-0.390245
5.944	-0.160693
5.945	0.047098
5.946	0.026236
5.947	-0.066378
5.948	0.024897
5.949	0.218905
5.95	0.198351
5.951	-0.012143
5.952	-0.042949
5.953	0.128737
5.954	0.16322
5.955	0.016365
5.956	-0.061549
5.957	-0.011834
5.958	0.023114
5.959	0.035038
5.96	0.134243
5.961	0.219599
5.962	0.123614
5.963	0.021686
5.964	0.12837
5.965	0.247917
5.966	0.116139
5.967	-0.140784
5.968	-0.212929
5.969	-0.095321
5.97	-0.0772
5.971	-0.197705
5.972	-0.167601
5.973	0.026006
5.974	0.082535
5.975	-0.029099
5.976	-0.080942
5.977	-0.02845
5.978	-0.003539
5.979	7.4e-05
5.98	0.090748
5.981	0.155628
5.982	0.029955
5.983	-0.090941
5.984	0.023866
5.985	0.178218
5.986	0.094861
5.987	-0.113649
5.988	-0.14498
5.989	-0.002531
5.99	0.008235
5.991	-0.162674
5.992	-0.207997
5.993	-0.068597
5.994	-0.008671
5.995	-0.070786
5.996	-0.071414
5.997	0.005015
5.998	0.031757
5.999	0.037407
6.0	0.149412
6.001	0.256427
6.002	0.165915
6.003	0.033502
6.004	0.086212
6.005	0.168387
6.006	0.042142
6.007	-0.17048
6.008	-0.170111
6.009	0.050202
6.01	0.204195
6.011	0.215134
6.012	0.278297
6.013	0.357562
6.014	0.233907
6.015	-0.01381
6.016	-0.129991
6.017	-0.094954
6.018	-0.065958
6.019	-0.054893
6.02	0.033597
6.021	0.082395
6.022	-0.069635
6.023	-0.217328
6.024	-0.11333
6.025	0.060446
6.026	0.028079
6.027	-0.111474
6.028	-0.078131
6.029	0.100024
6.03	0.096168
6.031	-0.138844
6.032	-0.262481
6.033	-0.168558
6.034	-0.100235
6.035	-0.119961
6.036	-0.082233
6.037	0.008605
6.038	0.034938
6.039	0.049974
6.04	0.208139
6.041	0.389974
6.042	0.328795
6.043	0.128168
6.044	0.075178
6.045	0.107143
6.046	0.010195
6.047	-0.13221
6.048	-0.081768
6.049	0.106305
6.05	0.105099
6.051	-0.119759
6.052	-0.219963
6.053	-0.10256
6.054	-0.028095
6.055	-0.062763
6.056	-0.052449
6.057	0.00139
6.058	-0.034226
6.059	-0.122911
6.06	-0.077153
6.061	0.075964
6.062	0.109912
6.063	0.043212
6.064	0.0656
6.065	0.109568
6.066	0.004202
6.067	-0.14275
6.068	-0.094631
6.069	0.081752
6.07	0.05071
6.071	-0.222802
6.072	-0.37484
6.073	-0.274902
6.074	-0.154588
6.075	-0.099411
6.076	-0.007998
6.077	0.079551
6.078	0.020816
6.079	-0.147523
6.08	-0.236697
6.081	-0.2372
6.082	-0.281972
6.083	-0.290228
6.084	-0.125741
6.085	0.049652
6.086	0.027045
6.087	-0.072942
6.088	0.014603
6.089	0.239676
6.09	0.235897
6.091	-0.085475
6.092	-0.324162
6.093	-0.257965
6.094	-0.141639
6.095	-0.139871
6.096	-0.114267
6.097	-0.002256
6.098	0.077358
6.099	0.09145
6.1	0.141486
6.101	0.175546
6.102	0.044966
6.103	-0.094313
6.104	0.010168
6.105	0.199008
6.106	0.149189
6.107	-0.092107
6.108	-0.216583
6.109	-0.155222
6.11	-0.158099
6.111	-0.288983
6.112	-0.258515
6.113	-0.018828
6.114	0.093484
6.115	-0.010925
6.116	-0.077632
6.117	-0.010045
6.118	0.043009
6.119	0.013948
6.12	-0.019682
6.121	-0.097629
6.122	-0.292764
6.123	-0.385122
6.124	-0.16062
6.125	0.138858
6.126	0.156821
6.127	-0.048939
6.128	-0.153
6.129	-0.079057
6.13	-0.083807
6.131	-0.241281
6.132	-0.254917
6.133	-0.048801
6.134	0.063628
6.135	-0.016098
6.136	-0.06679
6.137	-0.009424
6.138	0.029966
6.139	0.037297
6.14	0.140039
6.141	0.277625
6.142	0.244572
6.143	0.127456
6.144	0.160819
6.145	0.239154
6.146	0.112078
6.147	-0.140577
6.148	-0.223923
6.149	-0.10563
6.15	-0.081877
6.151	-0.251964
6.152	-0.31474
6.153	-0.157044
6.154	-0.053841
6.155	-0.103952
6.156	-0.119641
6.157	-0.045004
6.158	0.004591
6.159	0.047738
6.16	0.236364
6.161	0.48202
6.162	0.489214
6.163	0.29114
6.164	0.190896
6.165	0.18628
6.166	0.054218
6.167	-0.157632
6.168	-0.191621
6.169	-0.042818
6.17	-0.029251
6.171	-0.258051
6.172	-0.402701
6.173	-0.297246
6.174	-0.180002
6.175	-0.165228
6.176	-0.113359
6.177	-0.001344
6.178	0.055064
6.179	0.088037
6.18	0.259975
6.181	0.488073
6.182	0.477625
6.183	0.260319
6.184	0.143812
6.185	0.136298
6.186	0.020349
6.187	-0.161461
6.188	-0.156521
6.189	0.053363
6.19	0.179188
6.191	0.106044
6.192	0.066448
6.193	0.13128
6.194	0.09185
6.195	-0.057789
6.196	-0.111389
6.197	-0.050194
6.198	-0.042166
6.199	-0.122825
6.2	-0.144572
6.201	-0.088837
6.202	-0.110607
6.203	-0.169199
6.204	-0.082664
6.205	0.055241
6.206	0.021179
6.207	-0.112955
6.208	-0.091354
6.209	0.073141
6.21	0.057385
6.211	-0.221802
6.212	-0.403272
6.213	-0.306753
6.214	-0.175764
6.215	-0.137583
6.216	-0.07398
6.217	0.015181
6.218	-0.001693
6.219	-0.094714
6.22	-0.052832
6.221	0.146334
6.222	0.244402
6.223	0.162105
6.224	0.093631
6.225	0.061339
6.226	-0.083666
6.227	-0.277992
6.228	-0.28109
6.229	-0.061024
6.23	0.112953
6.231	0.108795
6.232	0.153248
6.233	0.311186
6.234	0.290768
6.235	0.031631
6.236	-0.17024
6.237	-0.171522
6.238	-0.104957
6.239	-0.047368
6.24	0.081367
6.241	0.215841
6.242	0.130095
6.243	-0.093467
6.244	-0.125816
6.245	0.007866
6.246	0.006954
6.247	-0.139747
6.248	-0.160288
6.249	0.02091
6.25	0.138734
6.251	0.054921
6.252	0.017541
6.253	0.13577
6.254	0.148159
6.255	-0.022172
6.256	-0.1335
6.257	-0.093571
6.258	-0.067749
6.259	-0.159313
6.26	-0.274847
6.261	-0.36301
6.262	-0.494421
6.263	-0.5662
6.264	-0.379728
6.265	-0.077837
6.266	0.01959
6.267	-0.073542
6.268	-0.071685
6.269	0.098839
6.27	0.173552
6.271	0.034177
6.272	-0.034161
6.273	0.103146
6.274	0.169423
6.275	0.043169
6.276	-0.064802
6.277	-0.057155
6.278	-0.068332
6.279	-0.157474
6.28	-0.188472
6.281	-0.123833
6.282	-0.145827
6.283	-0.255256
6.284	-0.215483
6.285	-0.050175
6.286	-0.015555
6.287	-0.111176
6.288	-0.091673
6.289	0.087282
6.29	0.153661
6.291	-0.005564
6.292	-0.096852
6.293	0.029934
6.294	0.114922
6.295	0.032783
6.296	-0.032467
6.297	-0.009941
6.298	-0.046435
6.299	-0.209035
6.3	-0.3681
6.301	-0.454146
6.302	-0.557288
6.303	-0.614534
6.304	-0.437098
6.305	-0.136878
6.306	-0.008215
6.307	-0.043244
6.308	0.026042
6.309	0.253383
6.31	0.321432
6.311	0.047195
6.312	-0.227924
6.313	-0.194002
6.314	-0.048851
6.315	-0.002683
6.316	0.029893
6.317	0.079626
6.318	0.014424
6.319	-0.189158
6.32	-0.35904
6.321	-0.407716
6.322	-0.446134
6.323	-0.460018
6.324	-0.295356
6.325	-0.051423
6.326	0.020572
6.327	-0.04132
6.328	0.03054
6.329	0.271647
6.33	0.340831
6.331	0.034579
6.332	-0.301156
6.333	-0.315912
6.334	-0.162407
6.335	-0.050323
6.336	0.05625
6.337	0.141208
6.338	0.068056
6.339	-0.167546
6.34	-0.388273
6.341	-0.521223
6.342	-0.662589
6.343	-0.711317
6.344	-0.438078
6.345	-0.005859
6.346	0.174484
6.347	0.048835
6.348	-0.069137
6.349	-0.007159
6.35	0.041185
6.351	-0.057637
6.352	-0.046496
6.353	0.192099
6.354	0.308213
6.355	0.131941
6.356	-0.056608
6.357	-0.066122
6.358	-0.011878
6.359	0.002779
6.36	0.05554
6.361	0.14545
6.362	0.094534
6.363	-0.056124
6.364	-0.037541
6.365	0.110108
6.366	0.08309
6.367	-0.135437
6.368	-0.243295
6.369	-0.082836
6.37	0.147653
6.371	0.269971
6.372	0.420708
6.373	0.621903
6.374	0.564929
6.375	0.191384
6.376	-0.147092
6.377	-0.239007
6.378	-0.201507
6.379	-0.135393
6.38	0.046503
6.381	0.311021
6.382	0.372086
6.383	0.183045
6.384	0.059573
6.385	0.07499
6.386	-0.017777
6.387	-0.241875
6.388	-0.320469
6.389	-0.122754
6.39	0.125853
6.391	0.227913
6.392	0.328102
6.393	0.487184
6.394	0.432633
6.395	0.104005
6.396	-0.179711
6.397	-0.240865
6.398	-0.223573
6.399	-0.249051
6.4	-0.20846
6.401	-0.045152
6.402	0.027073
6.403	-0.07034
6.404	-0.0937
6.405	0.001135
6.406	-0.029087
6.407	-0.202676
6.408	-0.252922
6.409	-0.080554
6.41	0.051214
6.411	-0.036205
6.412	-0.082592
6.413	0.079214
6.414	0.155141
6.415	-0.011228
6.416	-0.170918
6.417	-0.169329
6.418	-0.141619
6.419	-0.191266
6.42	-0.1959
6.421	-0.085529
6.422	-0.060596
6.423	-0.185584
6.424	-0.202267
6.425	-0.06293
6.426	-0.024399
6.427	-0.130543
6.428	-0.147323
6.429	-0.016283
6.43	-0.041142
6.431	-0.382098
6.432	-0.649725
6.433	-0.528344
6.434	-0.289808
6.435	-0.195431
6.436	-0.126919
6.437	-0.004754
6.438	0.038119
6.439	-0.059599
6.44	-0.133105
6.441	-0.080619
6.442	-0.087502
6.443	-0.221515
6.444	-0.231867
6.445	-0.070483
6.446	0.004373
6.447	-0.066578
6.448	-0.068598
6.449	0.052222
6.45	0.00876
6.451	-0.329627
6.452	-0.55169
6.453	-0.355349
6.454	-0.067116
6.455	0.005011
6.456	-0.008272
6.457	0.021168
6.458	-0.007405
6.459	-0.146961
6.46	-0.225232
6.461	-0.130617
6.462	-0.062083
6.463	-0.13469
6.464	-0.140201
6.465	-0.02661
6.466	-0.013587
6.467	-0.120876
6.468	-0.095428
6.469	0.160118
6.47	0.356977
6.471	0.238303
6.472	0.036932
6.473	0.037341
6.474	0.08207
6.475	0.012042
6.476	-0.034032
6.477	0.00272
6.478	-0.03805
6.479	-0.241039
6.48	-0.448925
6.481	-0.520448
6.482	-0.552585
6.483	-0.574414
6.484	-0.414334
6.485	-0.123527
6.486	0.016847
6.487	-0.021775
6.488	0.01847
6.489	0.224678
6.49	0.283415
6.491	-0.042756
6.492	-0.401166
6.493	-0.382328
6.494	-0.162481
6.495	-0.028167
6.496	0.057683
6.497	0.134432
6.498	0.088048
6.499	-0.105907
6.5	-0.279827
6.501	-0.34672
6.502	-0.435793
6.503	-0.512646
6.504	-0.328385
6.505	0.038768
6.506	0.19999
6.507	0.054845
6.508	-0.109762
6.509	-0.096256
6.51	-0.085659
6.511	-0.243568
6.512	-0.289403
6.513	-0.02243
6.514	0.19793
6.515	0.108728
6.516	-0.047013
6.517	-0.04925
6.518	0.004475
6.519	-0.008221
6.52	-0.008937
6.521	0.046843
6.522	-0.018202
6.523	-0.203636
6.524	-0.200099
6.525	0.022004
6.526	0.122756
6.527	-0.014818
6.528	-0.13938
6.529	-0.083053
6.53	-0.050094
6.531	-0.22411
6.532	-0.323845
6.533	-0.117154
6.534	0.0821
6.535	0.026676
6.536	-0.073787
6.537	-0.042327
6.538	0.014208
6.539	-0.006682
6.54	-0.007863
6.541	0.054384
6.542	-0.013568
6.543	-0.221029
6.544	-0.246616
6.545	-0.041956
6.546	0.06106
6.547	-0.048772
6.548	-0.09734
6.549	0.12298
6.55	0.40631
6.551	0.452338
6.552	0.385105
6.553	0.422282
6.554	0.384035
6.555	0.140445
6.556	-0.070659
6.557	-0.09582
6.558	-0.087036
6.559	-0.18949
6.56	-0.294813
6.561	-0.273087
6.562	-0.262791
6.563	-0.344978
6.564	-0.295109
6.565	-0.067846
6.566	0.051389
6.567	-0.036827
6.568	-0.101539
6.569	-0.004901
6.57	0.029145
6.571	-0.181138
6.572	-0.327084
6.573	-0.14204
6.574	0.070862
6.575	0.044086
6.576	-0.040606
6.577	-0.023892
6.578	-0.027967
6.579	-0.171038
6.58	-0.327753
6.581	-0.352027
6.582	-0.366855
6.583	-0.446592
6.584	-0.371174
6.585	-0.104917
6.586	0.05974
6.587	0.014338
6.588	-0.026349
6.589	0.061954
6.59	0.055636
6.591	-0.208179
6.592	-0.390904
6.593	-0.203919
6.594	0.048606
6.595	0.072684
6.596	0.015293
6.597	0.021165
6.598	-0.013742
6.599	-0.163577
6.6	-0.249407
6.601	-0.118216
6.602	0.009243
6.603	-0.06161
6.604	-0.109444
6.605	0.005997
6.606	0.078849
6.607	0.011918
6.608	-0.028744
6.609	0.012745
6.61	-0.134327
6.611	-0.605343
6.612	-0.936294
6.613	-0.720199
6.614	-0.279226
6.615	-0.028083
6.616	0.073321
6.617	0.130751
6.618	0.061969
6.619	-0.160592
6.62	-0.319135
6.621	-0.24041
6.622	-0.142412
6.623	-0.221823
6.624	-0.250127
6.625	-0.079105
6.626	0.074137
6.627	0.088378
6.628	0.120928
6.629	0.238718
6.63	0.154454
6.631	-0.340174
6.632	-0.80686
6.633	-0.729919
6.634	-0.315503
6.635	0.007958
6.636	0.186621
6.637	0.258065
6.638	0.13718
6.639	-0.163116
6.64	-0.382326
6.641	-0.326891
6.642	-0.219157
6.643	-0.272585
6.644	-0.270071
6.645	-0.059854
6.646	0.145036
6.647	0.199384
6.648	0.202313
6.649	0.169854
6.65	-0.141935
6.651	-0.783783
6.652	-1.215955
6.653	-1.009041
6.654	-0.499667
6.655	-0.138953
6.656	0.06035
6.657	0.170647
6.658	0.129183
6.659	-0.035851
6.66	-0.066284
6.661	0.182942
6.662	0.393416
6.663	0.287965
6.664	0.11873
6.665	0.115321
6.666	0.111782
6.667	-0.006388
6.668	-0.053359
6.669	0.18923
6.67	0.693178
6.671	1.202761
6.672	1.426004
6.673	1.209601
6.674	0.671147
6.675	0.155634
6.676	-0.050963
6.677	0.029075
6.678	0.148254
6.679	0.162873
6.68	0.202741
6.681	0.35632
6.682	0.366173
6.683	0.110349
6.684	-0.037917
6.685	0.126646
6.686	0.291468
6.687	0.202597
6.688	0.012836
6.689	0.012581
6.69	0.300528
6.691	0.73644
6.692	1.062107
6.693	1.057707
6.694	0.728119
6.695	0.333241
6.696	0.135157
6.697	0.136886
6.698	0.142789
6.699	0.068726
6.7	0.090797
6.701	0.306708
6.702	0.415199
6.703	0.220345
6.704	0.056807
6.705	0.161715
6.706	0.281397
6.707	0.194089
6.708	0.059124
6.709	0.169102
6.71	0.592093
6.711	1.083882
6.712	1.302042
6.713	1.102952
6.714	0.656323
6.715	0.282439
6.716	0.164463
6.717	0.206402
6.718	0.186806
6.719	0.058444
6.72	0.038246
6.721	0.234224
6.722	0.336571
6.723	0.147379
6.724	0.004429
6.725	0.141741
6.726	0.299643
6.727	0.249221
6.728	0.141256
6.729	0.269148
6.73	0.715263
6.731	1.247791
6.732	1.518603
6.733	1.359172
6.734	0.910004
6.735	0.478962
6.736	0.263315
6.737	0.200947
6.738	0.110919
6.739	-0.014407
6.74	0.068751
6.741	0.435832
6.742	0.659787
6.743	0.443962
6.744	0.161915
6.745	0.160514
6.746	0.247429
6.747	0.192329
6.748	0.115325
6.749	0.278243
6.75	0.733721
6.751	1.22528
6.752	1.4132
6.753	1.18474
6.754	0.737622
6.755	0.376623
6.756	0.241419
6.757	0.221049
6.758	0.131065
6.759	-0.012548
6.76	0.053617
6.761	0.410446
6.762	0.627236
6.763	0.4013
6.764	0.107562
6.765	0.103697
6.766	0.205405
6.767	0.181353
6.768	0.146715
6.769	0.356317
6.77	0.848229
6.771	1.344432
6.772	1.4945
6.773	1.203974
6.774	0.708594
6.775	0.33696
6.776	0.218921
6.777	0.216912
6.778	0.129977
6.779	-0.023622
6.78	0.034891
6.781	0.407163
6.782	0.668868
6.783	0.487558
6.784	0.195021
6.785	0.143383
6.786	0.189083
6.787	0.145896
6.788	0.136294
6.789	0.373113
6.79	0.821545
6.791	1.158387
6.792	1.097485
6.793	0.699568
6.794	0.2832
6.795	0.099619
6.796	0.151965
6.797	0.242029
6.798	0.172256
6.799	-0.01422
6.8	-0.014269
6.801	0.296238
6.802	0.516567
6.803	0.342881
6.804	0.129641
6.805	0.204494
6.806	0.338659
6.807	0.264168
6.808	0.103043
6.809	0.15379
6.81	0.499323
6.811	0.901525
6.812	1.054115
6.813	0.868897
6.814	0.498872
6.815	0.180008
6.816	0.07307
6.817	0.146048
6.818	0.214201
6.819	0.182493
6.82	0.187174
6.821	0.303277
6.822	0.269392
6.823	-0.024339
6.824	-0.179916
6.825	0.025262
6.826	0.258399
6.827	0.228214
6.828	0.089866
6.829	0.176688
6.83	0.580986
6.831	1.052514
6.832	1.259402
6.833	1.083916
6.834	0.667686
6.835	0.269048
6.836	0.087864
6.837	0.113561
6.838	0.151351
6.839	0.08486
6.84	0.048871
6.841	0.141584
6.842	0.120776
6.843	-0.130441
6.844	-0.239315
6.845	-0.007163
6.846	0.225205
6.847	0.180659
6.848	0.042544
6.849	0.16226
6.85	0.617693
6.851	1.115679
6.852	1.292604
6.853	1.050157
6.854	0.584681
6.855	0.190813
6.856	0.059119
6.857	0.13916
6.858	0.198274
6.859	0.108048
6.86	0.024042
6.861	0.085163
6.862	0.074751
6.863	-0.137721
6.864	-0.210398
6.865	0.044758
6.866	0.299648
6.867	0.280564
6.868	0.108863
6.869	-0.039715
6.87	-0.29087
6.871	-0.767567
6.872	-1.077909
6.873	-0.814978
6.874	-0.283912
6.875	0.039298
6.876	0.160482
6.877	0.234983
6.878	0.225308
6.879	0.104838
6.88	0.080934
6.881	0.296082
6.882	0.44973
6.883	0.295244
6.884	0.140177
6.885	0.227495
6.886	0.306226
6.887	0.165735
6.888	-0.036567
6.889	-0.130925
6.89	-0.30593
6.891	-0.787079
6.892	-1.228739
6.893	-1.127695
6.894	-0.646784
6.895	-0.239629
6.896	0.014837
6.897	0.195136
6.898	0.236791
6.899	0.11964
6.9	0.07196
6.901	0.258445
6.902	0.397378
6.903	0.25327
6.904	0.123034
6.905	0.221296
6.906	0.283271
6.907	0.115644
6.908	-0.089433
6.909	-0.12881
6.91	-0.172867
6.911	-0.452987
6.912	-0.679409
6.913	-0.474192
6.914	-0.09515
6.915	0.06405
6.916	0.074348
6.917	0.108063
6.918	0.101859
6.919	-0.008433
6.92	-0.029138
6.921	0.19783
6.922	0.389909
6.923	0.290891
6.924	0.166573
6.925	0.224069
6.926	0.227139
6.927	0.026471
6.928	-0.157006
6.929	-0.132081
6.93	-0.133453
6.931	-0.480857
6.932	-0.90068
6.933	-0.888567
6.934	-0.54873
6.935	-0.266086
6.936	-0.079831
6.937	0.086684
6.938	0.139924
6.939	0.03112
6.94	-0.017238
6.941	0.176659
6.942	0.342107
6.943	0.222635
6.944	0.086998
6.945	0.150452
6.946	0.165019
6.947	-0.05524
6.948	-0.313184
6.949	-0.378738
6.95	-0.376622
6.951	-0.521733
6.952	-0.586631
6.953	-0.312827
6.954	-0.027746
6.955	-0.059655
6.956	-0.182239
6.957	-0.112219
6.958	0.073343
6.959	0.210407
6.96	0.385396
6.961	0.680154
6.962	0.782082
6.963	0.492055
6.964	0.212974
6.965	0.231874
6.966	0.248378
6.967	0.011429
6.968	-0.274946
6.969	-0.355396
6.97	-0.381092
6.971	-0.624435
6.972	-0.854892
6.973	-0.703399
6.974	-0.391249
6.975	-0.278428
6.976	-0.251786
6.977	-0.098098
6.978	0.094569
6.979	0.167851
6.98	0.214442
6.981	0.353989
6.982	0.361396
6.983	0.100048
6.984	-0.063262
6.985	0.079359
6.986	0.189521
6.987	0.017856
6.988	-0.22329
6.989	-0.277939
6.99	-0.305427
6.991	-0.58387
6.992	-0.870657
6.993	-0.762896
6.994	-0.447754
6.995	-0.287616
6.996	-0.20983
6.997	-0.0381
6.998	0.133711
6.999	0.165356
7.0	0.178613
7.001	0.321731
7.002	0.374279
7.003	0.165375
7.004	0.016675
7.005	0.127494
7.006	0.191253
7.007	-0.00846
7.008	-0.244866
7.009	-0.249351
7.01	-0.161226
7.011	-0.272548
7.012	-0.426279
7.013	-0.302365
7.014	-0.079706
7.015	-0.059973
7.016	-0.119851
7.017	-0.053305
7.018	0.046393
7.019	0.011301
7.02	-0.064944
7.021	-0.017417
7.022	0.004383
7.023	-0.129734
7.024	-0.152046
7.025	0.060399
7.026	0.180259
7.027	0.00929
7.028	-0.20786
7.029	-0.205453
7.03	-0.153475
7.031	-0.386908
7.032	-0.734146
7.033	-0.747581
7.034	-0.483124
7.035	-0.279601
7.036	-0.152055
7.037	0.014636
7.038	0.124533
7.039	0.055609
7.04	-0.053132
7.041	-0.01775
7.042	0.007469
7.043	-0.120131
7.044	-0.140441
7.045	0.069538
7.046	0.187141
7.047	0.017726
7.048	-0.192016
7.049	-0.166302
7.05	-0.050549
7.051	-0.155579
7.052	-0.336065
7.053	-0.25101
7.054	-0.044462
7.055	-0.012362
7.056	-0.063519
7.057	-0.025007
7.058	0.021457
7.059	-0.031084
7.06	-0.021343
7.061	0.215095
7.062	0.418856
7.063	0.33096
7.064	0.19808
7.065	0.224546
7.066	0.181793
7.067	-0.068972
7.068	-0.278109
7.069	-0.211178
7.07	-0.083974
7.071	-0.280745
7.072	-0.656291
7.073	-0.738705
7.074	-0.522089
7.075	-0.301371
7.076	-0.116092
7.077	0.078071
7.078	0.146373
7.079	-0.005697
7.08	-0.177205
7.081	-0.135068
7.082	-0.040281
7.083	-0.105503
7.084	-0.134596
7.085	0.013162
7.086	0.088055
7.087	-0.067397
7.088	-0.239592
7.089	-0.199088
7.09	-0.080343
7.091	-0.157576
7.092	-0.297325
7.093	-0.176505
7.094	0.059094
7.095	0.07174
7.096	-0.056351
7.097	-0.068581
7.098	0.011959
7.099	0.025609
7.1	0.019401
7.101	0.097011
7.102	0.076918
7.103	-0.142613
7.104	-0.222074
7.105	0.004333
7.106	0.174937
7.107	0.02584
7.108	-0.216258
7.109	-0.232184
7.11	-0.105639
7.111	-0.1406
7.112	-0.256936
7.113	-0.150519
7.114	0.053825
7.115	0.049766
7.116	-0.076939
7.117	-0.092872
7.118	-0.032062
7.119	-0.037864
7.12	-0.041593
7.121	0.061324
7.122	0.067784
7.123	-0.145306
7.124	-0.241033
7.125	-0.037602
7.126	0.124184
7.127	-0.009483
7.128	-0.216311
7.129	-0.18994
7.13	-0.03296
7.131	-0.070873
7.132	-0.230196
7.133	-0.183361
7.134	-0.013995
7.135	-0.006126
7.136	-0.094372
7.137	-0.0837
7.138	-0.022658
7.139	-0.039156
7.14	-0.041169
7.141	0.089659
7.142	0.147964
7.143	-0.014523
7.144	-0.101827
7.145	0.051036
7.146	0.136062
7.147	-0.05109
7.148	-0.265529
7.149	-0.203432
7.15	0.031432
7.151	0.11872
7.152	0.101165
7.153	0.210891
7.154	0.300353
7.155	0.148486
7.156	-0.074768
7.157	-0.136625
7.158	-0.099424
7.159	-0.11159
7.16	-0.096811
7.161	0.050759
7.162	0.111345
7.163	-0.076889
7.164	-0.206977
7.165	-0.075959
7.166	0.032918
7.167	-0.093882
7.168	-0.23819
7.169	-0.130713
7.17	0.076865
7.171	0.017291
7.172	-0.240341
7.173	-0.3165
7.174	-0.215762
7.175	-0.181625
7.176	-0.183261
7.177	-0.095268
7.178	-0.002961
7.179	-0.024076
7.18	-0.044036
7.181	0.068384
7.182	0.106198
7.183	-0.093118
7.184	-0.229652
7.185	-0.101141
7.186	0.014915
7.187	-0.094022
7.188	-0.217877
7.189	-0.089516
7.19	0.163454
7.191	0.217863
7.192	0.138078
7.193	0.190149
7.194	0.25466
7.195	0.119009
7.196	-0.06703
7.197	-0.106423
7.198	-0.086086
7.199	-0.158655
7.2	-0.22754
7.201	-0.117989
7.202	0.02334
7.203	-0.022294
7.204	-0.095852
7.205	-0.022764
7.206	0.015213
7.207	-0.125282
7.208	-0.238712
7.209	-0.100498
7.21	0.106703
7.211	0.018918
7.212	-0.265331
7.213	-0.338606
7.214	-0.20011
7.215	-0.116657
7.216	-0.092356
7.217	-0.019079
7.218	0.018543
7.219	-0.099998
7.22	-0.260235
7.221	-0.284123
7.222	-0.284661
7.223	-0.391116
7.224	-0.389955
7.225	-0.169844
7.226	-0.00908
7.227	-0.084747
7.228	-0.179997
7.229	-0.049343
7.23	0.15285
7.231	0.102137
7.232	-0.075492
7.233	-0.014698
7.234	0.164494
7.235	0.115973
7.236	-0.079926
7.237	-0.139025
7.238	-0.057133
7.239	-0.005922
7.24	0.024135
7.241	0.139421
7.242	0.19731
7.243	0.05451
7.244	-0.043229
7.245	0.092033
7.246	0.195015
7.247	0.021335
7.248	-0.248791
7.249	-0.329983
7.25	-0.306427
7.251	-0.46477
7.252	-0.682759
7.253	-0.579456
7.254	-0.251045
7.255	-0.092587
7.256	-0.117426
7.257	-0.092706
7.258	-0.005932
7.259	0.004938
7.26	-0.034043
7.261	-0.030226
7.262	-0.118499
7.263	-0.357848
7.264	-0.417572
7.265	-0.139745
7.266	0.111367
7.267	0.034942
7.268	-0.18054
7.269	-0.206499
7.27	-0.088629
7.271	-0.139159
7.272	-0.333049
7.273	-0.332995
7.274	-0.143902
7.275	-0.0573
7.276	-0.087337
7.277	-0.057988
7.278	0.014964
7.279	0.013063
7.28	0.006117
7.281	0.119492
7.282	0.189816
7.283	0.049311
7.284	-0.059279
7.285	0.064673
7.286	0.167845
7.287	0.008673
7.288	-0.228267
7.289	-0.229047
7.29	-0.031296
7.291	0.071148
7.292	0.069057
7.293	0.176735
7.294	0.293186
7.295	0.183907
7.296	-0.037176
7.297	-0.1269
7.298	-0.099276
7.299	-0.095236
7.3	-0.071784
7.301	0.07103
7.302	0.151856
7.303	0.001962
7.304	-0.122265
7.305	-0.00427
7.306	0.111309
7.307	-0.018551
7.308	-0.218468
7.309	-0.192687
7.31	-0.015045
7.311	-0.024482
7.312	-0.215642
7.313	-0.249557
7.314	-0.109174
7.315	-0.063004
7.316	-0.120961
7.317	-0.113862
7.318	-0.054116
7.319	-0.048542
7.32	-0.022715
7.321	0.142138
7.322	0.266306
7.323	0.151707
7.324	0.013856
7.325	0.067359
7.326	0.108771
7.327	-0.066641
7.328	-0.274786
7.329	-0.223812
7.33	0.021342
7.331	0.139019
7.332	0.108207
7.333	0.163211
7.334	0.238447
7.335	0.117105
7.336	-0.098453
7.337	-0.1851
7.338	-0.159375
7.339	-0.143585
7.34	-0.06536
7.341	0.204577
7.342	0.462321
7.343	0.416508
7.344	0.217562
7.345	0.141014
7.346	0.087106
7.347	-0.112507
7.348	-0.298649
7.349	-0.226188
7.35	-0.013127
7.351	-0.024343
7.352	-0.25826
7.353	-0.354466
7.354	-0.256766
7.355	-0.202963
7.356	-0.211709
7.357	-0.155135
7.358	-0.079825
7.359	-0.103348
7.36	-0.142596
7.361	-0.026076
7.362	0.138102
7.363	0.120653
7.364	0.024375
7.365	0.046145
7.366	0.06182
7.367	-0.090506
7.368	-0.250484
7.369	-0.173566
7.37	0.032186
7.371	0.026271
7.372	-0.167131
7.373	-0.197952
7.374	-0.05584
7.375	-0.018261
7.376	-0.097992
7.377	-0.124864
7.378	-0.111086
7.379	-0.175061
7.38	-0.258864
7.381	-0.211633
7.382	-0.121413
7.383	-0.152018
7.384	-0.172232
7.385	-0.046554
7.386	0.036015
7.387	-0.087477
7.388	-0.234973
7.389	-0.162983
7.39	-0.010956
7.391	-0.159268
7.392	-0.56351
7.393	-0.741894
7.394	-0.551925
7.395	-0.300808
7.396	-0.149266
7.397	-0.03691
7.398	0.007867
7.399	-0.093917
7.4	-0.242809
7.401	-0.270737
7.402	-0.258995
7.403	-0.343697
7.404	-0.348719
7.405	-0.12476
7.406	0.087389
7.407	0.028121
7.408	-0.183168
7.409	-0.251325
7.41	-0.16541
7.411	-0.194241
7.412	-0.352324
7.413	-0.332768
7.414	-0.122029
7.415	-0.034752
7.416	-0.117169
7.417	-0.143869
7.418	-0.059726
7.419	0.014349
7.42	0.081672
7.421	0.233463
7.422	0.337272
7.423	0.21726
7.424	0.070458
7.425	0.134588
7.426	0.220627
7.427	0.064144
7.428	-0.209229
7.429	-0.300664
7.43	-0.238811
7.431	-0.354308
7.432	-0.668465
7.433	-0.770406
7.434	-0.532229
7.435	-0.286683
7.436	-0.193782
7.437	-0.114122
7.438	-0.005336
7.439	0.043309
7.44	0.056783
7.441	0.113545
7.442	0.084508
7.443	-0.129497
7.444	-0.253643
7.445	-0.075669
7.446	0.134786
7.447	0.070313
7.448	-0.14523
7.449	-0.203252
7.45	-0.128426
7.451	-0.258708
7.452	-0.620146
7.453	-0.78413
7.454	-0.585438
7.455	-0.330992
7.456	-0.195737
7.457	-0.081148
7.458	0.033797
7.459	0.073485
7.46	0.086368
7.461	0.15734
7.462	0.146322
7.463	-0.060318
7.464	-0.199405
7.465	-0.058727
7.466	0.110753
7.467	0.025095
7.468	-0.175263
7.469	-0.159285
7.47	0.080834
7.471	0.19526
7.472	0.034476
7.473	-0.129123
7.474	-0.132481
7.475	-0.12795
7.476	-0.164967
7.477	-0.130543
7.478	-0.037468
7.479	0.01002
7.48	0.041115
7.481	0.121495
7.482	0.094605
7.483	-0.152107
7.484	-0.3303
7.485	-0.194831
7.486	0.01749
7.487	0.008325
7.488	-0.119495
7.489	-0.093333
7.49	0.02647
7.491	-0.123
7.492	-0.562295
7.493	-0.817654
7.494	-0.667393
7.495	-0.394184
7.496	-0.198279
7.497	-0.031679
7.498	0.084312
7.499	0.041033
7.5	-0.141643
7.501	-0.355463
7.502	-0.613038
7.503	-0.874977
7.504	-0.859937
7.505	-0.474677
7.506	-0.073391
7.507	0.036734
7.508	-0.004431
7.509	0.117701
7.51	0.390536
7.511	0.464791
7.512	0.230584
7.513	0.024646
7.514	0.044702
7.515	0.108112
7.516	0.099328
7.517	0.08275
7.518	0.041279
7.519	-0.097711
7.52	-0.253994
7.521	-0.283827
7.522	-0.264651
7.523	-0.339336
7.524	-0.372847
7.525	-0.218025
7.526	-0.056066
7.527	-0.083335
7.528	-0.153121
7.529	0.004442
7.53	0.326395
7.531	0.429352
7.532	0.194838
7.533	-0.029395
7.534	-0.045415
7.535	-0.050709
7.536	-0.132575
7.537	-0.140041
7.538	-0.037449
7.539	0.04816
7.54	0.063779
7.541	0.021325
7.542	-0.18808
7.543	-0.570162
7.544	-0.75971
7.545	-0.498409
7.546	-0.088671
7.547	0.057428
7.548	-0.024573
7.549	-0.030758
7.55	0.075325
7.551	0.000861
7.552	-0.306752
7.553	-0.45858
7.554	-0.287508
7.555	-0.099719
7.556	-0.068275
7.557	-0.047056
7.558	0.034991
7.559	0.091385
7.56	0.112257
7.561	0.149253
7.562	0.07832
7.563	-0.217425
7.564	-0.468425
7.565	-0.364642
7.566	-0.084151
7.567	0.020584
7.568	-0.035742
7.569	-0.001028
7.57	0.119548
7.571	0.019858
7.572	-0.340827
7.573	-0.551759
7.574	-0.420302
7.575	-0.223254
7.576	-0.125712
7.577	-0.017466
7.578	0.115665
7.579	0.137227
7.58	0.000312
7.581	-0.228097
7.582	-0.547493
7.583	-0.91172
7.584	-1.020576
7.585	-0.681536
7.586	-0.188499
7.587	0.066012
7.588	0.094281
7.589	0.150755
7.59	0.233629
7.591	0.046469
7.592	-0.428032
7.593	-0.736285
7.594	-0.631702
7.595	-0.36613
7.596	-0.143327
7.597	0.072351
7.598	0.246741
7.599	0.252143
7.6	0.097854
7.601	-0.079038
7.602	-0.267017
7.603	-0.522056
7.604	-0.658165
7.605	-0.462123
7.606	-0.113196
7.607	0.068072
7.608	0.092021
7.609	0.19121
7.61	0.360674
7.611	0.288953
7.612	-0.111001
7.613	-0.440856
7.614	-0.416179
7.615	-0.226439
7.616	-0.059619
7.617	0.113394
7.618	0.249885
7.619	0.212931
7.62	0.01464
7.621	-0.187219
7.622	-0.360032
7.623	-0.565235
7.624	-0.650979
7.625	-0.433147
7.626	-0.086488
7.627	0.090998
7.628	0.117496
7.629	0.214161
7.63	0.366667
7.631	0.271503
7.632	-0.137819
7.633	-0.445232
7.634	-0.371946
7.635	-0.140068
7.636	0.033973
7.637	0.179204
7.638	0.268811
7.639	0.181977
7.64	-0.048411
7.641	-0.236389
7.642	-0.339682
7.643	-0.45731
7.644	-0.499942
7.645	-0.31135
7.646	-0.036648
7.647	0.075782
7.648	0.069411
7.649	0.167347
7.65	0.369875
7.651	0.409693
7.652	0.212496
7.653	0.080877
7.654	0.164416
7.655	0.240618
7.656	0.199084
7.657	0.162247
7.658	0.137241
7.659	0.003515
7.66	-0.194197
7.661	-0.237997
7.662	-0.1058
7.663	-0.030311
7.664	-0.062214
7.665	-0.034883
7.666	0.032535
7.667	-0.004669
7.668	-0.073791
7.669	0.033818
7.67	0.311589
7.671	0.509076
7.672	0.529963
7.673	0.553746
7.674	0.597172
7.675	0.441087
7.676	0.107188
7.677	-0.120515
7.678	-0.137948
7.679	-0.092805
7.68	-0.051703
7.681	0.093422
7.682	0.287252
7.683	0.267653
7.684	0.062888
7.685	-0.009374
7.686	0.072888
7.687	0.053588
7.688	-0.097497
7.689	-0.16286
7.69	-0.058679
7.691	0.067294
7.692	0.163868
7.693	0.356024
7.694	0.549269
7.695	0.46077
7.696	0.139793
7.697	-0.076707
7.698	-0.077201
7.699	-0.032439
7.7	-0.017713
7.701	0.086698
7.702	0.24274
7.703	0.197821
7.704	-0.021442
7.705	-0.096156
7.706	0.007335
7.707	0.03949
7.708	-0.04434
7.709	-0.057105
7.71	0.057588
7.711	0.144156
7.712	0.170274
7.713	0.297845
7.714	0.464631
7.715	0.397113
7.716	0.1281
7.717	-0.038306
7.718	-0.024371
7.719	-0.019829
7.72	-0.08503
7.721	-0.021021
7.722	0.234149
7.723	0.389444
7.724	0.291356
7.725	0.16506
7.726	0.122449
7.727	0.029404
7.728	-0.111398
7.729	-0.125292
7.73	0.036124
7.731	0.24921
7.732	0.493317
7.733	0.832529
7.734	1.057182
7.735	0.851195
7.736	0.333747
7.737	-0.068337
7.738	-0.202078
7.739	-0.250937
7.74	-0.288787
7.741	-0.102452
7.742	0.366446
7.743	0.724066
7.744	0.67919
7.745	0.436722
7.746	0.207345
7.747	-0.040856
7.748	-0.2577
7.749	-0.251784
7.75	0.048022
7.751	0.512065
7.752	0.995916
7.753	1.376071
7.754	1.410377
7.755	0.949772
7.756	0.269619
7.757	-0.186012
7.758	-0.322116
7.759	-0.372257
7.76	-0.427847
7.761	-0.265259
7.762	0.195779
7.763	0.572732
7.764	0.567234
7.765	0.371401
7.766	0.192201
7.767	-0.001492
7.768	-0.178718
7.769	-0.211741
7.77	-0.131697
7.771	-0.122322
7.772	-0.17986
7.773	-0.089675
7.774	0.119216
7.775	0.168912
7.776	0.045154
7.777	-0.009342
7.778	0.036434
7.779	-0.053387
7.78	-0.402398
7.781	-0.826051
7.782	-1.10132
7.783	-1.216463
7.784	-1.153282
7.785	-0.802625
7.786	-0.29015
7.787	0.079224
7.788	0.230641
7.789	0.322376
7.79	0.401155
7.791	0.308814
7.792	0.037105
7.793	-0.104062
7.794	0.029234
7.795	0.181582
7.796	0.199736
7.797	0.210669
7.798	0.236085
7.799	0.1284
7.8	-0.080291
7.801	-0.081682
7.802	0.242242
7.803	0.520728
7.804	0.4632
7.805	0.272795
7.806	0.154405
7.807	0.043712
7.808	-0.059729
7.809	0.02271
7.81	0.420138
7.811	1.060176
7.812	1.733175
7.813	2.170457
7.814	2.094821
7.815	1.456612
7.816	0.614921
7.817	0.021223
7.818	-0.244629
7.819	-0.409165
7.82	-0.521474
7.821	-0.291332
7.822	0.380428
7.823	1.004177
7.824	1.11355
7.825	0.832469
7.826	0.444105
7.827	0.04078
7.828	-0.26696
7.829	-0.310847
7.83	-0.070291
7.831	0.29623
7.832	0.672595
7.833	1.03341
7.834	1.198044
7.835	0.936214
7.836	0.388772
7.837	-0.059016
7.838	-0.292834
7.839	-0.503627
7.84	-0.748016
7.841	-0.750525
7.842	-0.34905
7.843	0.101805
7.844	0.230058
7.845	0.151668
7.846	0.062846
7.847	-0.060209
7.848	-0.182863
7.849	-0.1389
7.85	0.122913
7.851	0.456033
7.852	0.742121
