time_s	mv
0.0	-0.310016
0.001	-0.225753
0.002	-0.217754
0.003	-0.350082
0.004	-0.583287
0.005	-0.820574
0.006	-0.992588
0.007	-1.045249
0.008	-0.944783
0.009	-0.745427
0.01	-0.567545
0.011	-0.492927
0.012	-0.513642
0.013	-0.570004
0.014	-0.606928
0.015	-0.592942
0.016	-0.520332
0.017	-0.409895
0.018	-0.304186
0.019	-0.234062
0.02	-0.194646
0.021	-0.177121
0.022	-0.214611
0.023	-0.347638
0.024	-0.545916
0.025	-0.734637
0.026	-0.869163
0.027	-0.917062
0.028	-0.8502
0.029	-0.703986
0.03	-0.569959
0.031	-0.509411
0.032	-0.509237
0.033	-0.519407
0.034	-0.502788
0.035	-0.452649
0.036	-0.386254
0.037	-0.324514
0.038	-0.278396
0.039	-0.247982
0.04	-0.22432
0.041	-0.208724
0.042	-0.237316
0.043	-0.343998
0.044	-0.491842
0.045	-0.612235
0.046	-0.691064
0.047	-0.738438
0.048	-0.737225
0.049	-0.682129
0.05	-0.610112
0.051	-0.559558
0.052	-0.534729
0.053	-0.521991
0.054	-0.513236
0.055	-0.50372
0.056	-0.476849
0.057	-0.413913
0.058	-0.329239
0.059	-0.260855
0.06	-0.221335
0.061	-0.201679
0.062	-0.221262
0.063	-0.310512
0.064	-0.441253
0.065	-0.557801
0.066	-0.65262
0.067	-0.728674
0.068	-0.755561
0.069	-0.718762
0.07	-0.646663
0.071	-0.570304
0.072	-0.496741
0.073	-0.422354
0.074	-0.350087
0.075	-0.289703
0.076	-0.24867
0.077	-0.231006
0.078	-0.236491
0.079	-0.252549
0.08	-0.258194
0.081	-0.249241
0.082	-0.262288
0.083	-0.335698
0.084	-0.437966
0.085	-0.510958
0.086	-0.563591
0.087	-0.63244
0.088	-0.703433
0.089	-0.734603
0.09	-0.706418
0.091	-0.629628
0.092	-0.533513
0.093	-0.450889
0.094	-0.404765
0.095	-0.396118
0.096	-0.395709
0.097	-0.369498
0.098	-0.318979
0.099	-0.271834
0.1	-0.239544
0.101	-0.219921
0.102	-0.237574
0.103	-0.319666
0.104	-0.424774
0.105	-0.485479
0.106	-0.513066
0.107	-0.566408
0.108	-0.652717
0.109	-0.722115
0.11	-0.724667
0.111	-0.651155
0.112	-0.536102
0.113	-0.428433
0.114	-0.362831
0.115	-0.348625
0.116	-0.366828
0.117	-0.381458
0.118	-0.365968
0.119	-0.320156
0.12	-0.262033
0.121	-0.21978
0.122	-0.236502
0.123	-0.333377
0.124	-0.45243
0.125	-0.513496
0.126	-0.527819
0.127	-0.567599
0.128	-0.651672
0.129	-0.726334
0.13	-0.728678
0.131	-0.644029
0.132	-0.514827
0.133	-0.403711
0.134	-0.355616
0.135	-0.381087
0.136	-0.447542
0.137	-0.489155
0.138	-0.454472
0.139	-0.351574
0.14	-0.234792
0.141	-0.164228
0.142	-0.189425
0.143	-0.317441
0.144	-0.468721
0.145	-0.537986
0.146	-0.506462
0.147	-0.426546
0.148	-0.360081
0.149	-0.368185
0.15	-0.447994
0.151	-0.503936
0.152	-0.466656
0.153	-0.365511
0.154	-0.266769
0.155	-0.219503
0.156	-0.246761
0.157	-0.321328
0.158	-0.362427
0.159	-0.314958
0.16	-0.2151
0.161	-0.15036
0.162	-0.189863
0.163	-0.335185
0.164	-0.496643
0.165	-0.575557
0.166	-0.579209
0.167	-0.581037
0.168	-0.604836
0.169	-0.603038
0.17	-0.531348
0.171	-0.427507
0.172	-0.378495
0.173	-0.411673
0.174	-0.46138
0.175	-0.439866
0.176	-0.334177
0.177	-0.223712
0.178	-0.190601
0.179	-0.234174
0.18	-0.281761
0.181	-0.273449
0.182	-0.228366
0.183	-0.213315
0.184	-0.273187
0.185	-0.430099
0.186	-0.668714
0.187	-0.868455
0.188	-0.87352
0.189	-0.673475
0.19	-0.420166
0.191	-0.264888
0.192	-0.24787
0.193	-0.326268
0.194	-0.427559
0.195	-0.471078
0.196	-0.405596
0.197	-0.263998
0.198	-0.152678
0.199	-0.141298
0.2	-0.186383
0.201	-0.20554
0.202	-0.187203
0.203	-0.177421
0.204	-0.206682
0.205	-0.296165
0.206	-0.461396
0.207	-0.638309
0.208	-0.703092
0.209	-0.613723
0.21	-0.453595
0.211	-0.324593
0.212	-0.2645
0.213	-0.265595
0.214	-0.300072
0.215	-0.313646
0.216	-0.252829
0.217	-0.137616
0.218	-0.066715
0.219	-0.101053
0.22	-0.186865
0.221	-0.237185
0.222	-0.238843
0.223	-0.230972
0.224	-0.225622
0.225	-0.218671
0.226	-0.212839
0.227	-0.163353
0.228	-0.03737
0.229	0.046731
0.23	-0.039444
0.231	-0.214075
0.232	-0.322039
0.233	-0.334983
0.234	-0.292385
0.235	-0.199085
0.236	-0.053272
0.237	0.07785
0.238	0.089265
0.239	-0.036436
0.24	-0.200366
0.241	-0.299638
0.242	-0.322978
0.243	-0.311785
0.244	-0.270928
0.245	-0.184332
0.246	-0.058714
0.247	0.11771
0.248	0.314973
0.249	0.348238
0.25	0.105104
0.251	-0.21624
0.252	-0.377004
0.253	-0.38018
0.254	-0.35287
0.255	-0.35909
0.256	-0.369071
0.257	-0.341889
0.258	-0.295129
0.259	-0.269208
0.26	-0.261312
0.261	-0.238737
0.262	-0.202587
0.263	-0.185094
0.264	-0.199408
0.265	-0.261566
0.266	-0.409522
0.267	-0.620627
0.268	-0.781925
0.269	-0.796099
0.27	-0.663379
0.271	-0.456871
0.272	-0.269459
0.273	-0.179971
0.274	-0.225129
0.275	-0.369824
0.276	-0.504862
0.277	-0.523176
0.278	-0.423301
0.279	-0.293808
0.28	-0.194422
0.281	-0.12054
0.282	-0.074932
0.283	-0.083978
0.284	-0.149126
0.285	-0.259707
0.286	-0.410496
0.287	-0.541976
0.288	-0.564387
0.289	-0.485352
0.29	-0.382977
0.291	-0.280148
0.292	-0.16949
0.293	-0.076019
0.294	-0.019321
0.295	0.014245
0.296	0.034281
0.297	0.023165
0.298	-0.032053
0.299	-0.109478
0.3	-0.164388
0.301	-0.17119
0.302	-0.156967
0.303	-0.167974
0.304	-0.21307
0.305	-0.293725
0.306	-0.442672
0.307	-0.651441
0.308	-0.818876
0.309	-0.837011
0.31	-0.689511
0.311	-0.453738
0.312	-0.238416
0.313	-0.118016
0.314	-0.098338
0.315	-0.12508
0.316	-0.13491
0.317	-0.111488
0.318	-0.086713
0.319	-0.089466
0.32	-0.108939
0.321	-0.119883
0.322	-0.130411
0.323	-0.166982
0.324	-0.222797
0.325	-0.282947
0.326	-0.363865
0.327	-0.454059
0.328	-0.498338
0.329	-0.483423
0.33	-0.428878
0.331	-0.326956
0.332	-0.191109
0.333	-0.088118
0.334	-0.06702
0.335	-0.097386
0.336	-0.099361
0.337	-0.041835
0.338	0.017177
0.339	0.012585
0.34	-0.046615
0.341	-0.106826
0.342	-0.146539
0.343	-0.181693
0.344	-0.218593
0.345	-0.273191
0.346	-0.399553
0.347	-0.608837
0.348	-0.805381
0.349	-0.859718
0.35	-0.721274
0.351	-0.455908
0.352	-0.189102
0.353	-0.017975
0.354	0.038868
0.355	0.037221
0.356	0.048331
0.357	0.084099
0.358	0.094093
0.359	0.040386
0.36	-0.051454
0.361	-0.123359
0.362	-0.150185
0.363	-0.147353
0.364	-0.113003
0.365	-0.015906
0.366	0.172039
0.367	0.462544
0.368	0.741559
0.369	0.736743
0.37	0.376787
0.371	-0.029957
0.372	-0.222273
0.373	-0.251788
0.374	-0.254397
0.375	-0.261454
0.376	-0.248603
0.377	-0.222186
0.378	-0.210608
0.379	-0.216785
0.38	-0.216341
0.381	-0.186917
0.382	-0.1375
0.383	-0.1026
0.384	-0.101371
0.385	-0.134075
0.386	-0.180327
0.387	-0.156135
0.388	-0.016474
0.389	0.094308
0.39	0.047048
0.391	-0.04706
0.392	-0.062903
0.393	-0.065235
0.394	-0.162762
0.395	-0.351862
0.396	-0.524614
0.397	-0.56919
0.398	-0.468989
0.399	-0.3052
0.4	-0.163349
0.401	-0.065495
0.402	-0.002368
0.403	0.024509
0.404	0.019311
0.405	-0.003177
0.406	-0.010126
0.407	0.08958
0.408	0.315717
0.409	0.450745
0.41	0.323492
0.411	0.106386
0.412	0.008075
0.413	-0.016529
0.414	-0.091314
0.415	-0.233065
0.416	-0.365492
0.417	-0.40306
0.418	-0.329001
0.419	-0.207372
0.42	-0.108511
0.421	-0.046274
0.422	-0.006937
0.423	0.014841
0.424	0.039816
0.425	0.106018
0.426	0.248289
0.427	0.490374
0.428	0.731346
0.429	0.717759
0.43	0.394945
0.431	0.067421
0.432	-0.028942
0.433	0.018582
0.434	0.043575
0.435	0.004113
0.436	-0.047126
0.437	-0.056051
0.438	-0.028023
0.439	-0.015969
0.44	-0.046474
0.441	-0.086364
0.442	-0.099739
0.443	-0.083896
0.444	-0.028923
0.445	0.089083
0.446	0.27901
0.447	0.531341
0.448	0.731886
0.449	0.65115
0.45	0.27864
0.451	-0.051666
0.452	-0.110814
0.453	-0.019511
0.454	0.021303
0.455	-0.042266
0.456	-0.13301
0.457	-0.156835
0.458	-0.104545
0.459	-0.048112
0.46	-0.040704
0.461	-0.060541
0.462	-0.066619
0.463	-0.045785
0.464	0.010552
0.465	0.090854
0.466	0.139299
0.467	0.135847
0.468	0.103753
0.469	0.003806
0.47	-0.158109
0.471	-0.225622
0.472	-0.138597
0.473	-0.045304
0.474	-0.052791
0.475	-0.083442
0.476	-0.014752
0.477	0.123606
0.478	0.166041
0.479	0.032378
0.48	-0.160906
0.481	-0.237937
0.482	-0.145986
0.483	0.024289
0.484	0.131177
0.485	0.058101
0.486	-0.181159
0.487	-0.364036
0.488	-0.28316
0.489	-0.057433
0.49	0.065796
0.491	0.074655
0.492	0.05768
0.493	-0.006484
0.494	-0.125688
0.495	-0.194833
0.496	-0.121895
0.497	0.024757
0.498	0.079534
0.499	-0.015002
0.5	-0.145623
0.501	-0.172107
0.502	-0.0717
0.503	0.070951
0.504	0.154167
0.505	0.113805
0.506	-0.0108
0.507	-0.052171
0.508	0.073591
0.509	0.196144
0.51	0.167744
0.511	0.096123
0.512	0.090635
0.513	0.084787
0.514	0.01453
0.515	-0.061881
0.516	-0.06582
0.517	-0.019502
0.518	-0.013482
0.519	-0.081047
0.52	-0.1527
0.521	-0.140316
0.522	-0.039263
0.523	0.075215
0.524	0.11792
0.525	0.039889
0.526	-0.10654
0.527	-0.145961
0.528	0.004607
0.529	0.165557
0.53	0.176394
0.531	0.131492
0.532	0.128041
0.533	0.092338
0.534	-0.03655
0.535	-0.181581
0.536	-0.229665
0.537	-0.169725
0.538	-0.092899
0.539	-0.073842
0.54	-0.087758
0.541	-0.06111
0.542	0.023991
0.543	0.116318
0.544	0.156155
0.545	0.110244
0.546	0.016902
0.547	0.009992
0.548	0.14172
0.549	0.245612
0.55	0.201517
0.551	0.129529
0.552	0.130267
0.553	0.128205
0.554	0.05755
0.555	-0.019169
0.556	-0.014836
0.557	0.05322
0.558	0.086186
0.559	0.031788
0.56	-0.054957
0.561	-0.08278
0.562	-0.028492
0.563	0.053701
0.564	0.097958
0.565	0.066806
0.566	-0.005392
0.567	0.007594
0.568	0.149342
0.569	0.252268
0.57	0.201935
0.571	0.120444
0.572	0.102488
0.573	0.063633
0.574	-0.065791
0.575	-0.212718
0.576	-0.255422
0.577	-0.169793
0.578	-0.054494
0.579	-0.010639
0.58	-0.029655
0.581	-0.029846
0.582	0.026949
0.583	0.1075
0.584	0.17261
0.585	0.216835
0.586	0.284812
0.587	0.440439
0.588	0.607556
0.589	0.578233
0.59	0.341822
0.591	0.137972
0.592	0.084854
0.593	0.063951
0.594	-0.028304
0.595	-0.139622
0.596	-0.161676
0.597	-0.082569
0.598	-0.003941
0.599	-0.006875
0.6	-0.055488
0.601	-0.059472
0.602	0.01091
0.603	0.110954
0.604	0.193943
0.605	0.251873
0.606	0.327614
0.607	0.48013
0.608	0.630908
0.609	0.579046
0.61	0.325208
0.611	0.115274
0.612	0.066034
0.613	0.057893
0.614	-0.007586
0.615	-0.077892
0.616	-0.060861
0.617	0.032854
0.618	0.092091
0.619	0.044959
0.62	-0.052773
0.621	-0.09085
0.622	-0.027251
0.623	0.102098
0.624	0.264053
0.625	0.448765
0.626	0.642963
0.627	0.816059
0.628	0.857014
0.629	0.63124
0.63	0.238933
0.631	-0.029626
0.632	-0.08496
0.633	-0.093416
0.634	-0.177816
0.635	-0.293456
0.636	-0.345173
0.637	-0.309107
0.638	-0.238138
0.639	-0.1848
0.64	-0.142635
0.641	-0.066689
0.642	0.055487
0.643	0.190808
0.644	0.319807
0.645	0.449755
0.646	0.591442
0.647	0.738873
0.648	0.787668
0.649	0.591511
0.65	0.241216
0.651	0.026689
0.652	0.034453
0.653	0.0797
0.654	0.000294
0.655	-0.189555
0.656	-0.364671
0.657	-0.417467
0.658	-0.347143
0.659	-0.23469
0.66	-0.134331
0.661	-0.030981
0.662	0.088602
0.663	0.199523
0.664	0.290516
0.665	0.380787
0.666	0.495845
0.667	0.638505
0.668	0.704092
0.669	0.539731
0.67	0.22334
0.671	0.026712
0.672	0.025422
0.673	0.050139
0.674	-0.020308
0.675	-0.152624
0.676	-0.267775
0.677	-0.319318
0.678	-0.298534
0.679	-0.226524
0.68	-0.126707
0.681	-0.005612
0.682	0.116025
0.683	0.200013
0.684	0.241567
0.685	0.276433
0.686	0.351756
0.687	0.490018
0.688	0.592069
0.689	0.48792
0.69	0.22782
0.691	0.070526
0.692	0.100338
0.693	0.15866
0.694	0.120651
0.695	0.014551
0.696	-0.074974
0.697	-0.105321
0.698	-0.091431
0.699	-0.067574
0.7	-0.04115
0.701	0.004735
0.702	0.061175
0.703	0.094734
0.704	0.105803
0.705	0.132593
0.706	0.215378
0.707	0.36755
0.708	0.507677
0.709	0.505102
0.71	0.375836
0.711	0.247251
0.712	0.128117
0.713	-0.063362
0.714	-0.292863
0.715	-0.403009
0.716	-0.308041
0.717	-0.113858
0.718	-0.008494
0.719	-0.055082
0.72	-0.135853
0.721	-0.106287
0.722	0.046117
0.723	0.218605
0.724	0.305163
0.725	0.27083
0.726	0.212195
0.727	0.312868
0.728	0.569642
0.729	0.712355
0.73	0.595515
0.731	0.377582
0.732	0.19525
0.733	0.009444
0.734	-0.198909
0.735	-0.3295
0.736	-0.289779
0.737	-0.133843
0.738	-0.017264
0.739	-0.015339
0.74	-0.05171
0.741	-0.03253
0.742	0.022087
0.743	0.036958
0.744	0.01291
0.745	0.036963
0.746	0.224884
0.747	0.623301
0.748	1.02529
0.749	1.080223
0.75	0.757994
0.751	0.375446
0.752	0.12639
0.753	-0.058056
0.754	-0.250597
0.755	-0.388711
0.756	-0.378719
0.757	-0.244266
0.758	-0.121354
0.759	-0.096469
0.76	-0.112766
0.761	-0.071266
0.762	0.038727
0.763	0.158056
0.764	0.254098
0.765	0.358125
0.766	0.563816
0.767	0.927397
0.768	1.251084
0.769	1.198549
0.77	0.769263
0.771	0.313485
0.772	0.049822
0.773	-0.081368
0.774	-0.165715
0.775	-0.186339
0.776	-0.118041
0.777	-0.022609
0.778	-0.002365
0.779	-0.074648
0.78	-0.143202
0.781	-0.109894
0.782	0.022698
0.783	0.17737
0.784	0.268786
0.785	0.204023
0.786	-0.075112
0.787	-0.472883
0.788	-0.755734
0.789	-0.747132
0.79	-0.471406
0.791	-0.111683
0.792	0.139058
0.793	0.202199
0.794	0.142654
0.795	0.091596
0.796	0.121471
0.797	0.192563
0.798	0.218731
0.799	0.170421
0.8	0.099549
0.801	0.059939
0.802	0.036307
0.803	-0.00982
0.804	-0.061005
0.805	-0.06135
0.806	0.031232
0.807	0.197593
0.808	0.304645
0.809	0.231517
0.81	0.065446
0.811	-0.018432
0.812	0.00511
0.813	0.048719
0.814	0.076802
0.815	0.126635
0.816	0.21591
0.817	0.294692
0.818	0.293814
0.819	0.204494
0.82	0.094578
0.821	0.029303
0.822	-0.002153
0.823	-0.047116
0.824	-0.12064
0.825	-0.226707
0.826	-0.379646
0.827	-0.550719
0.828	-0.650703
0.829	-0.601865
0.83	-0.412553
0.831	-0.173203
0.832	0.012909
0.833	0.097976
0.834	0.111994
0.835	0.121876
0.836	0.162742
0.837	0.207345
0.838	0.202097
0.839	0.137478
0.84	0.066233
0.841	0.033804
0.842	0.019473
0.843	-0.016063
0.844	-0.067625
0.845	-0.1284
0.846	-0.232092
0.847	-0.386343
0.848	-0.51782
0.849	-0.531661
0.85	-0.405099
0.851	-0.206086
0.852	-0.033753
0.853	0.057775
0.854	0.091972
0.855	0.131833
0.856	0.207231
0.857	0.274939
0.858	0.264673
0.859	0.172438
0.86	0.072446
0.861	0.022843
0.862	0.000413
0.863	-0.036501
0.864	-0.067641
0.865	-0.057473
0.866	-0.026784
0.867	-0.033605
0.868	-0.120117
0.869	-0.248002
0.87	-0.300638
0.871	-0.218461
0.872	-0.0675
0.873	0.058306
0.874	0.12357
0.875	0.143612
0.876	0.14417
0.877	0.131324
0.878	0.09532
0.879	0.043548
0.88	0.010162
0.881	0.012288
0.882	0.01282
0.883	-0.02823
0.884	-0.091897
0.885	-0.152329
0.886	-0.23744
0.887	-0.370244
0.888	-0.497891
0.889	-0.528084
0.89	-0.419185
0.891	-0.220769
0.892	-0.031827
0.893	0.074517
0.894	0.082606
0.895	0.017034
0.896	-0.073655
0.897	-0.133725
0.898	-0.133488
0.899	-0.080565
0.9	0.004617
0.901	0.090864
0.902	0.120104
0.903	0.051497
0.904	-0.089852
0.905	-0.259857
0.906	-0.441355
0.907	-0.600022
0.908	-0.660518
0.909	-0.569461
0.91	-0.354474
0.911	-0.110749
0.912	0.065207
0.913	0.139239
0.914	0.141538
0.915	0.109933
0.916	0.05724
0.917	-0.000873
0.918	-0.031571
0.919	-0.013659
0.92	0.047965
0.921	0.117402
0.922	0.126351
0.923	0.030857
0.924	-0.136383
0.925	-0.31757
0.926	-0.487346
0.927	-0.617405
0.928	-0.648698
0.929	-0.54139
0.93	-0.326489
0.931	-0.095013
0.932	0.06872
0.933	0.151592
0.934	0.202488
0.935	0.253164
0.936	0.272101
0.937	0.223891
0.938	0.137197
0.939	0.073891
0.94	0.06412
0.941	0.080346
0.942	0.053749
0.943	-0.053637
0.944	-0.195268
0.945	-0.30779
0.946	-0.392911
0.947	-0.473529
0.948	-0.521513
0.949	-0.479262
0.95	-0.333364
0.951	-0.145987
0.952	-0.000958
0.953	0.072369
0.954	0.103527
0.955	0.124088
0.956	0.132456
0.957	0.11814
0.958	0.092817
0.959	0.079132
0.96	0.084759
0.961	0.086095
0.962	0.03482
0.963	-0.079484
0.964	-0.182407
0.965	-0.201489
0.966	-0.176235
0.967	-0.2032
0.968	-0.296735
0.969	-0.366094
0.97	-0.329652
0.971	-0.210653
0.972	-0.097301
0.973	-0.040725
0.974	-0.022685
0.975	-0.001886
0.976	0.039612
0.977	0.089969
0.978	0.124652
0.979	0.131843
0.98	0.122167
0.981	0.097634
0.982	0.02666
0.983	-0.10418
0.984	-0.235297
0.985	-0.300417
0.986	-0.317129
0.987	-0.346861
0.988	-0.394164
0.989	-0.394773
0.99	-0.303466
0.991	-0.158235
0.992	-0.038562
0.993	0.013867
0.994	0.015502
0.995	0.005197
0.996	0.0159
0.997	0.059704
0.998	0.113657
0.999	0.144301
1.0	0.144342
1.001	0.112167
1.002	0.023625
1.003	-0.10951
1.004	-0.175488
1.005	-0.048567
1.006	0.255895
1.007	0.533777
1.008	0.530186
1.009	0.227066
1.01	-0.098359
1.011	-0.213079
1.012	-0.1403
1.013	-0.011152
1.014	0.090248
1.015	0.136631
1.016	0.132747
1.017	0.103775
1.018	0.079338
1.019	0.0743
1.02	0.081207
1.021	0.070313
1.022	0.0015
1.023	-0.117635
1.024	-0.194721
1.025	-0.154959
1.026	-0.06422
1.027	-0.066845
1.028	-0.207856
1.029	-0.374171
1.03	-0.419993
1.031	-0.310779
1.032	-0.122512
1.033	0.064128
1.034	0.223666
1.035	0.3568
1.036	0.440547
1.037	0.418791
1.038	0.263537
1.039	0.045618
1.04	-0.103398
1.041	-0.118677
1.042	-0.059521
1.043	-0.01997
1.044	-0.038702
1.045	-0.124747
1.046	-0.270136
1.047	-0.403091
1.048	-0.424807
1.049	-0.314471
1.05	-0.14848
1.051	-0.024908
1.052	0.006792
1.053	-0.029453
1.054	-0.057262
1.055	-0.013528
1.056	0.084452
1.057	0.147785
1.058	0.111105
1.059	0.008787
1.06	-0.061539
1.061	-0.053031
1.062	-0.019252
1.063	-0.020576
1.064	-0.033707
1.065	0.003088
1.066	0.119055
1.067	0.268573
1.068	0.318314
1.069	0.200397
1.07	0.036827
1.071	-0.03738
1.072	-0.031174
1.073	-0.005049
1.074	0.031244
1.075	0.105819
1.076	0.21665
1.077	0.294314
1.078	0.261237
1.079	0.129374
1.08	0.001596
1.081	-0.049421
1.082	-0.060784
1.083	-0.099149
1.084	-0.173267
1.085	-0.271945
1.086	-0.396262
1.087	-0.509729
1.088	-0.534852
1.089	-0.434095
1.09	-0.256018
1.091	-0.092645
1.092	-0.005611
1.093	0.016967
1.094	0.046202
1.095	0.140056
1.096	0.265495
1.097	0.319771
1.098	0.247826
1.099	0.106868
1.1	0.001902
1.101	-0.029675
1.102	-0.0481
1.103	-0.113807
1.104	-0.215109
1.105	-0.324463
1.106	-0.439744
1.107	-0.531387
1.108	-0.533584
1.109	-0.418258
1.11	-0.234629
1.111	-0.07228
1.112	0.003875
1.113	-0.003661
1.114	-0.030671
1.115	-0.005054
1.116	0.081462
1.117	0.159661
1.118	0.162353
1.119	0.103618
1.12	0.052646
1.121	0.035292
1.122	0.000798
1.123	-0.093851
1.124	-0.222373
1.125	-0.348433
1.126	-0.4654
1.127	-0.543684
1.128	-0.525287
1.129	-0.392853
1.13	-0.199184
1.131	-0.027725
1.132	0.066283
1.133	0.085168
1.134	0.075705
1.135	0.090224
1.136	0.140205
1.137	0.183948
1.138	0.175999
1.139	0.124412
1.14	0.078638
1.141	0.055621
1.142	0.009975
1.143	-0.092213
1.144	-0.218506
1.145	-0.329945
1.146	-0.422809
1.147	-0.481831
1.148	-0.465524
1.149	-0.355084
1.15	-0.186606
1.151	-0.027587
1.152	0.074605
1.153	0.118808
1.154	0.137662
1.155	0.165163
1.156	0.203551
1.157	0.221484
1.158	0.191564
1.159	0.127139
1.16	0.071821
1.161	0.040715
1.162	-0.006847
1.163	-0.100737
1.164	-0.209129
1.165	-0.298621
1.166	-0.376109
1.167	-0.438733
1.168	-0.446974
1.169	-0.368306
1.17	-0.221857
1.171	-0.06437
1.172	0.062752
1.173	0.160695
1.174	0.255195
1.175	0.355673
1.176	0.42816
1.177	0.420127
1.178	0.317956
1.179	0.169644
1.18	0.047306
1.181	-0.020194
1.182	-0.070576
1.183	-0.134999
1.184	-0.181958
1.185	-0.18754
1.186	-0.196009
1.187	-0.255283
1.188	-0.339613
1.189	-0.371738
1.19	-0.306503
1.191	-0.172112
1.192	-0.031218
1.193	0.078739
1.194	0.157886
1.195	0.214133
1.196	0.241183
1.197	0.224723
1.198	0.162502
1.199	0.077509
1.2	0.009657
1.201	-0.022945
1.202	-0.050206
1.203	-0.095584
1.204	-0.128724
1.205	-0.136661
1.206	-0.178047
1.207	-0.295671
1.208	-0.428291
1.209	-0.465002
1.21	-0.364946
1.211	-0.196554
1.212	-0.066807
1.213	-0.019757
1.214	-0.010085
1.215	0.024251
1.216	0.089727
1.217	0.144193
1.218	0.146956
1.219	0.098678
1.22	0.042369
1.221	0.007347
1.222	-0.031114
1.223	-0.084005
1.224	-0.07556
1.225	0.090808
1.226	0.415904
1.227	0.733225
1.228	0.768683
1.229	0.4542
1.23	0.070316
1.231	-0.118259
1.232	-0.124408
1.233	-0.071114
1.234	-0.015947
1.235	0.044119
1.236	0.108471
1.237	0.142779
1.238	0.114751
1.239	0.043467
1.24	-0.013817
1.241	-0.028037
1.242	-0.032146
1.243	-0.064461
1.244	-0.114675
1.245	-0.172012
1.246	-0.262405
1.247	-0.388065
1.248	-0.483117
1.249	-0.466103
1.25	-0.324928
1.251	-0.136408
1.252	0.00137
1.253	0.053118
1.254	0.059894
1.255	0.078084
1.256	0.116936
1.257	0.135746
1.258	0.101866
1.259	0.037186
1.26	-0.006709
1.261	-0.012085
1.262	-0.018128
1.263	-0.051247
1.264	-0.056429
1.265	0.049544
1.266	0.285671
1.267	0.53417
1.268	0.558513
1.269	0.288707
1.27	-0.016906
1.271	-0.120807
1.272	-0.071445
1.273	-0.019053
1.274	-0.023932
1.275	-0.065001
1.276	-0.100361
1.277	-0.105344
1.278	-0.087824
1.279	-0.069625
1.28	-0.045995
1.281	0.010568
1.282	0.096612
1.283	0.173664
1.284	0.21075
1.285	0.202162
1.286	0.180381
1.287	0.163451
1.288	0.082003
1.289	-0.080727
1.29	-0.175125
1.291	-0.100048
1.292	0.05139
1.293	0.146062
1.294	0.141091
1.295	0.061523
1.296	-0.045603
1.297	-0.125998
1.298	-0.13823
1.299	-0.082795
1.3	0.004761
1.301	0.074545
1.302	0.075325
1.303	0.010609
1.304	-0.022401
1.305	0.08798
1.306	0.359813
1.307	0.659731
1.308	0.750354
1.309	0.553847
1.31	0.278796
1.311	0.112498
1.312	0.020973
1.313	-0.067927
1.314	-0.122424
1.315	-0.087835
1.316	-0.003405
1.317	0.024872
1.318	-0.047144
1.319	-0.1503
1.32	-0.175323
1.321	-0.086832
1.322	0.040418
1.323	0.109042
1.324	0.079475
1.325	-0.030391
1.326	-0.133031
1.327	-0.12461
1.328	-0.034463
1.329	0.033043
1.33	0.072577
1.331	0.10336
1.332	0.070048
1.333	-0.055977
1.334	-0.20244
1.335	-0.266812
1.336	-0.219633
1.337	-0.1268
1.338	-0.074561
1.339	-0.0747
1.34	-0.058414
1.341	0.021209
1.342	0.11855
1.343	0.152358
1.344	0.067686
1.345	-0.166411
1.346	-0.503025
1.347	-0.763036
1.348	-0.761848
1.349	-0.492668
1.35	-0.131311
1.351	0.104846
1.352	0.093439
1.353	-0.12541
1.354	-0.385455
1.355	-0.530584
1.356	-0.522158
1.357	-0.417677
1.358	-0.286316
1.359	-0.150985
1.36	0.005124
1.361	0.175851
1.362	0.298518
1.363	0.30169
1.364	0.141997
1.365	-0.194575
1.366	-0.616867
1.367	-0.892231
1.368	-0.825305
1.369	-0.452895
1.37	-0.011691
1.371	0.239369
1.372	0.169785
1.373	-0.15114
1.374	-0.504741
1.375	-0.703918
1.376	-0.714991
1.377	-0.597557
1.378	-0.407503
1.379	-0.172734
1.38	0.085545
1.381	0.318887
1.382	0.450047
1.383	0.429871
1.384	0.274615
1.385	0.061288
1.386	-0.050661
1.387	0.065312
1.388	0.287631
1.389	0.405832
1.39	0.414036
1.391	0.370593
1.392	0.220219
1.393	-0.051729
1.394	-0.309941
1.395	-0.41716
1.396	-0.378926
1.397	-0.286551
1.398	-0.192111
1.399	-0.080158
1.4	0.075868
1.401	0.251486
1.402	0.370785
1.403	0.383313
1.404	0.319227
1.405	0.269355
1.406	0.358966
1.407	0.605018
1.408	0.765214
1.409	0.641872
1.41	0.405004
1.411	0.280904
1.412	0.242907
1.413	0.194061
1.414	0.156704
1.415	0.205348
1.416	0.329426
1.417	0.412325
1.418	0.351178
1.419	0.17261
1.42	0.001521
1.421	-0.074641
1.422	-0.063811
1.423	0.037019
1.424	0.335084
1.425	0.935873
1.426	1.757565
1.427	2.396303
1.428	2.271785
1.429	1.312862
1.43	0.237953
1.431	-0.287236
1.432	-0.259419
1.433	0.021891
1.434	0.362331
1.435	0.695058
1.436	0.945699
1.437	0.980342
1.438	0.726156
1.439	0.279772
1.44	-0.151528
1.441	-0.408716
1.442	-0.477531
1.443	-0.420993
1.444	-0.278286
1.445	-0.085665
1.446	0.080854
1.447	0.121301
1.448	-0.035503
1.449	-0.306519
1.45	-0.464227
1.451	-0.405233
1.452	-0.252494
1.453	-0.149679
1.454	-0.124067
1.455	-0.13491
1.456	-0.145982
1.457	-0.145281
1.458	-0.140629
1.459	-0.145058
1.46	-0.147307
1.461	-0.126489
1.462	-0.099359
1.463	-0.088611
1.464	-0.066769
1.465	0.012249
1.466	0.161656
1.467	0.304244
1.468	0.267309
1.469	0.023263
1.47	-0.184083
1.471	-0.17377
1.472	-0.039988
1.473	0.057429
1.474	0.070634
1.475	0.037684
1.476	0.007013
1.477	-0.005576
1.478	-0.017592
1.479	-0.043455
1.48	-0.059135
1.481	-0.037682
1.482	-0.007228
1.483	-0.018123
1.484	-0.093876
1.485	-0.255972
1.486	-0.513784
1.487	-0.790224
1.488	-0.928582
1.489	-0.81643
1.49	-0.495073
1.491	-0.141022
1.492	0.068959
1.493	0.085227
1.494	-0.011178
1.495	-0.105103
1.496	-0.133677
1.497	-0.105281
1.498	-0.061308
1.499	-0.021285
1.5	0.030471
1.501	0.095709
1.502	0.123182
1.503	0.049847
1.504	-0.153618
1.505	-0.486777
1.506	-0.880227
1.507	-1.159718
1.508	-1.153322
1.509	-0.838564
1.51	-0.361343
1.511	0.0574
1.512	0.248712
1.513	0.184626
1.514	-0.037044
1.515	-0.277096
1.516	-0.416657
1.517	-0.396452
1.518	-0.244876
1.519	-0.044033
1.52	0.135318
1.521	0.244598
1.522	0.244688
1.523	0.147012
1.524	0.044067
1.525	0.052233
1.526	0.241051
1.527	0.522704
1.528	0.610726
1.529	0.377512
1.53	0.102881
1.531	0.053829
1.532	0.154175
1.533	0.211961
1.534	0.154266
1.535	0.024074
1.536	-0.092052
1.537	-0.12609
1.538	-0.07518
1.539	0.005773
1.54	0.071668
1.541	0.120083
1.542	0.147222
1.543	0.124758
1.544	0.030581
1.545	-0.094625
1.546	-0.08677
1.547	0.167957
1.548	0.454827
1.549	0.494093
1.55	0.359649
1.551	0.255469
1.552	0.192917
1.553	0.104355
1.554	0.008388
1.555	-0.016365
1.556	0.054794
1.557	0.139253
1.558	0.133226
1.559	0.037612
1.56	-0.044849
1.561	-0.041566
1.562	0.012589
1.563	0.04985
1.564	0.051225
1.565	0.05406
1.566	0.162418
1.567	0.411411
1.568	0.578258
1.569	0.460288
1.57	0.217467
1.571	0.08792
1.572	0.068816
1.573	0.064217
1.574	0.068503
1.575	0.131876
1.576	0.246673
1.577	0.318055
1.578	0.26006
1.579	0.099253
1.58	-0.044924
1.581	-0.088385
1.582	-0.059308
1.583	-0.032491
1.584	-0.057338
1.585	-0.150629
1.586	-0.252791
1.587	-0.265499
1.588	-0.209169
1.589	-0.16674
1.59	-0.113213
1.591	-0.004806
1.592	0.103683
1.593	0.154339
1.594	0.177436
1.595	0.242116
1.596	0.35053
1.597	0.408212
1.598	0.326344
1.599	0.136858
1.6	-0.029367
1.601	-0.08031
1.602	-0.045176
1.603	-0.012509
1.604	-0.06611
1.605	-0.278952
1.606	-0.631521
1.607	-0.945019
1.608	-1.013865
1.609	-0.79257
1.61	-0.411961
1.611	-0.060116
1.612	0.131603
1.613	0.149939
1.614	0.094065
1.615	0.089324
1.616	0.170335
1.617	0.247819
1.618	0.219537
1.619	0.100163
1.62	0.003084
1.621	0.002286
1.622	0.05744
1.623	0.079991
1.624	-0.008324
1.625	-0.272488
1.626	-0.680142
1.627	-1.035168
1.628	-1.115159
1.629	-0.866131
1.63	-0.42693
1.631	-0.008772
1.632	0.233728
1.633	0.273125
1.634	0.200908
1.635	0.144822
1.636	0.158773
1.637	0.183737
1.638	0.137603
1.639	0.028229
1.64	-0.052166
1.641	-0.040126
1.642	0.02702
1.643	0.074414
1.644	0.06912
1.645	0.039027
1.646	0.096375
1.647	0.3013
1.648	0.453882
1.649	0.355691
1.65	0.154424
1.651	0.061911
1.652	0.03885
1.653	-0.032116
1.654	-0.142145
1.655	-0.19512
1.656	-0.14244
1.657	-0.047228
1.658	-0.008596
1.659	-0.040521
1.66	-0.060701
1.661	-0.002706
1.662	0.102783
1.663	0.185405
1.664	0.212896
1.665	0.204442
1.666	0.249562
1.667	0.392144
1.668	0.455024
1.669	0.292889
1.67	0.088751
1.671	0.045276
1.672	0.090059
1.673	0.077037
1.674	-0.004592
1.675	-0.070597
1.676	-0.067051
1.677	-0.029054
1.678	-0.026796
1.679	-0.071444
1.68	-0.094044
1.681	-0.035403
1.682	0.073951
1.683	0.168188
1.684	0.228129
1.685	0.291345
1.686	0.446369
1.687	0.682804
1.688	0.736035
1.689	0.449576
1.69	0.109911
1.691	0.007342
1.692	0.055227
1.693	0.04829
1.694	-0.063475
1.695	-0.193675
1.696	-0.250807
1.697	-0.227022
1.698	-0.179962
1.699	-0.148208
1.7	-0.102972
1.701	-0.006949
1.702	0.112626
1.703	0.207325
1.704	0.27456
1.705	0.352318
1.706	0.507101
1.707	0.709141
1.708	0.710049
1.709	0.391948
1.71	0.058009
1.711	-0.019603
1.712	0.04929
1.713	0.059038
1.714	-0.024466
1.715	-0.110934
1.716	-0.127723
1.717	-0.088915
1.718	-0.05866
1.719	-0.066534
1.72	-0.067988
1.721	-0.014159
1.722	0.066105
1.723	0.107721
1.724	0.091716
1.725	0.069786
1.726	0.163332
1.727	0.395606
1.728	0.508076
1.729	0.318677
1.73	0.077641
1.731	0.044652
1.732	0.119919
1.733	0.10753
1.734	-0.024081
1.735	-0.175477
1.736	-0.244722
1.737	-0.213391
1.738	-0.139911
1.739	-0.079487
1.74	-0.02361
1.741	0.056951
1.742	0.140326
1.743	0.176855
1.744	0.141963
1.745	0.042438
1.746	-0.057956
1.747	-0.092164
1.748	-0.116358
1.749	-0.174555
1.75	-0.146287
1.751	0.016642
1.752	0.151516
1.753	0.117928
1.754	-0.041511
1.755	-0.18299
1.756	-0.206143
1.757	-0.125066
1.758	-0.02914
1.759	0.018748
1.76	0.037666
1.761	0.070469
1.762	0.107964
1.763	0.120729
1.764	0.120912
1.765	0.161553
1.766	0.322364
1.767	0.568176
1.768	0.623242
1.769	0.34994
1.77	0.053877
1.771	0.013591
1.772	0.114745
1.773	0.138648
1.774	0.047938
1.775	-0.04572
1.776	-0.042961
1.777	0.038249
1.778	0.102933
1.779	0.097151
1.78	0.057609
1.781	0.040645
1.782	0.043915
1.783	0.040008
1.784	0.039436
1.785	0.095358
1.786	0.29803
1.787	0.631154
1.788	0.8197
1.789	0.668453
1.79	0.387578
1.791	0.217142
1.792	0.103457
1.793	-0.05797
1.794	-0.195778
1.795	-0.166769
1.796	0.028507
1.797	0.205893
1.798	0.193094
1.799	0.020315
1.8	-0.121922
1.801	-0.096318
1.802	0.05565
1.803	0.193373
1.804	0.20327
1.805	0.09109
1.806	0.057426
1.807	0.271611
1.808	0.516803
1.809	0.49687
1.81	0.325653
1.811	0.234508
1.812	0.185894
1.813	0.058336
1.814	-0.117445
1.815	-0.205655
1.816	-0.140659
1.817	-0.016649
1.818	0.019663
1.819	-0.053185
1.82	-0.111555
1.821	-0.047182
1.822	0.111831
1.823	0.259477
1.824	0.312072
1.825	0.26994
1.826	0.281495
1.827	0.462996
1.828	0.605748
1.829	0.476475
1.83	0.244994
1.831	0.153125
1.832	0.142322
1.833	0.07422
1.834	-0.025595
1.835	-0.040837
1.836	0.05268
1.837	0.139706
1.838	0.10277
1.839	-0.034847
1.84	-0.129952
1.841	-0.078705
1.842	0.077661
1.843	0.215641
1.844	0.226744
1.845	0.086179
1.846	-0.057468
1.847	-0.024173
1.848	0.093039
1.849	0.106174
1.85	0.086364
1.851	0.148733
1.852	0.196419
1.853	0.116368
1.854	-0.036515
1.855	-0.127091
1.856	-0.106215
1.857	-0.050535
1.858	-0.053184
1.859	-0.108855
1.86	-0.119831
1.861	-0.019316
1.862	0.145427
1.863	0.279744
1.864	0.324481
1.865	0.290085
1.866	0.304439
1.867	0.455523
1.868	0.543762
1.869	0.382454
1.87	0.171635
1.871	0.130824
1.872	0.148542
1.873	0.040573
1.874	-0.178548
1.875	-0.340437
1.876	-0.322483
1.877	-0.182273
1.878	-0.075948
1.879	-0.064214
1.88	-0.060997
1.881	0.02133
1.882	0.159651
1.883	0.284742
1.884	0.361811
1.885	0.399825
1.886	0.479006
1.887	0.628703
1.888	0.64282
1.889	0.386804
1.89	0.117071
1.891	0.074902
1.892	0.144427
1.893	0.125615
1.894	0.004863
1.895	-0.090415
1.896	-0.074056
1.897	-0.001475
1.898	0.01588
1.899	-0.041945
1.9	-0.08374
1.901	-0.03453
1.902	0.070593
1.903	0.143633
1.904	0.124208
1.905	0.015451
1.906	-0.061262
1.907	0.011164
1.908	0.108779
1.909	0.075659
1.91	0.033958
1.911	0.115958
1.912	0.208115
1.913	0.167051
1.914	0.023229
1.915	-0.08095
1.916	-0.065701
1.917	0.005634
1.918	0.024753
1.919	-0.026637
1.92	-0.069171
1.921	-0.038201
1.922	0.040988
1.923	0.111523
1.924	0.153275
1.925	0.190798
1.926	0.313634
1.927	0.537564
1.928	0.619594
1.929	0.394727
1.93	0.115422
1.931	0.037732
1.932	0.070299
1.933	0.042741
1.934	-0.042402
1.935	-0.082575
1.936	-0.038761
1.937	0.025305
1.938	0.032242
1.939	-0.022627
1.94	-0.070415
1.941	-0.053613
1.942	0.006532
1.943	0.058339
1.944	0.084651
1.945	0.118021
1.946	0.260727
1.947	0.524861
1.948	0.641889
1.949	0.428196
1.95	0.142989
1.951	0.063796
1.952	0.111194
1.953	0.096671
1.954	-0.015856
1.955	-0.136867
1.956	-0.180463
1.957	-0.142265
1.958	-0.085283
1.959	-0.062477
1.96	-0.056661
1.961	-0.024211
1.962	0.029448
1.963	0.07616
1.964	0.116279
1.965	0.182988
1.966	0.357291
1.967	0.625156
1.968	0.713642
1.969	0.456407
1.97	0.131453
1.971	0.02374
1.972	0.051427
1.973	0.026341
1.974	-0.084452
1.975	-0.197599
1.976	-0.235544
1.977	-0.192054
1.978	-0.1248
1.979	-0.08672
1.98	-0.058954
1.981	0.01768
1.982	0.154694
1.983	0.30497
1.984	0.410561
1.985	0.467977
1.986	0.582819
1.987	0.779062
1.988	0.791616
1.989	0.458787
1.99	0.083608
1.991	-0.02691
1.992	0.039809
1.993	0.067042
1.994	-0.005569
1.995	-0.096874
1.996	-0.116802
1.997	-0.064937
1.998	-0.014222
1.999	-0.013159
2.0	-0.033803
2.001	-0.030143
2.002	0.000284
2.003	0.062217
2.004	0.196011
2.005	0.422259
2.006	0.725555
2.007	0.985494
2.008	0.922115
2.009	0.464291
2.01	-0.008987
2.011	-0.187165
2.012	-0.193272
2.013	-0.240001
2.014	-0.310036
2.015	-0.258247
2.016	-0.068656
2.017	0.085296
2.018	0.049554
2.019	-0.121421
2.02	-0.234877
2.021	-0.177371
2.022	-0.002157
2.023	0.179479
2.024	0.296683
2.025	0.353011
2.026	0.475179
2.027	0.735165
2.028	0.880159
2.029	0.664887
2.03	0.291354
2.031	0.057216
2.032	-0.051083
2.033	-0.166768
2.034	-0.302905
2.035	-0.387345
2.036	-0.381306
2.037	-0.305799
2.038	-0.199135
2.039	-0.094571
2.04	-0.011749
2.041	0.031135
2.042	0.00508
2.043	-0.085461
2.044	-0.187786
2.045	-0.221586
2.046	-0.043797
2.047	0.385087
2.048	0.736209
2.049	0.675674
2.05	0.362186
2.051	0.10955
2.052	-0.049912
2.053	-0.193984
2.054	-0.283493
2.055	-0.237464
2.056	-0.095251
2.057	-0.003261
2.058	-0.041856
2.059	-0.135892
2.06	-0.15201
2.061	-0.051019
2.062	0.086661
2.063	0.159548
2.064	0.084323
2.065	-0.200779
2.066	-0.621853
2.067	-0.940468
2.068	-0.965292
2.069	-0.716328
2.07	-0.350345
2.071	-0.023781
2.072	0.168537
2.073	0.216389
2.074	0.19302
2.075	0.195243
2.076	0.250887
2.077	0.291995
2.078	0.242747
2.079	0.121869
2.08	0.021803
2.081	-0.0126
2.082	-0.02511
2.083	-0.0636
2.084	-0.15734
2.085	-0.352171
2.086	-0.630122
2.087	-0.849138
2.088	-0.867362
2.089	-0.673659
2.09	-0.368594
2.091	-0.079968
2.092	0.101173
2.093	0.162342
2.094	0.167778
2.095	0.188885
2.096	0.227183
2.097	0.22658
2.098	0.157381
2.099	0.060626
2.1	0.001825
2.101	-0.012973
2.102	-0.036252
2.103	-0.087896
2.104	-0.157858
2.105	-0.283945
2.106	-0.493074
2.107	-0.700962
2.108	-0.775762
2.109	-0.664767
2.11	-0.419963
2.111	-0.143795
2.112	0.073136
2.113	0.195411
2.114	0.248373
2.115	0.273039
2.116	0.272362
2.117	0.222553
2.118	0.128545
2.119	0.037692
2.12	-0.007558
2.121	-0.02714
2.122	-0.082724
2.123	-0.1899
2.124	-0.325594
2.125	-0.502872
2.126	-0.716902
2.127	-0.867275
2.128	-0.845637
2.129	-0.650101
2.13	-0.371098
2.131	-0.119856
2.132	0.023562
2.133	0.045024
2.134	0.003221
2.135	-0.016245
2.136	0.02104
2.137	0.072715
2.138	0.088086
2.139	0.075507
2.14	0.069696
2.141	0.055202
2.142	-0.019799
2.143	-0.15462
2.144	-0.307411
2.145	-0.478124
2.146	-0.662579
2.147	-0.778884
2.148	-0.74367
2.149	-0.563199
2.15	-0.313515
2.151	-0.081912
2.152	0.070323
2.153	0.128648
2.154	0.128167
2.155	0.122948
2.156	0.136469
2.157	0.14837
2.158	0.13502
2.159	0.106337
2.16	0.083332
2.161	0.045932
2.162	-0.050673
2.163	-0.194868
2.164	-0.335119
2.165	-0.468984
2.166	-0.604454
2.167	-0.687615
2.168	-0.657436
2.169	-0.513363
2.17	-0.306118
2.171	-0.099978
2.172	0.05724
2.173	0.151292
2.174	0.204343
2.175	0.247177
2.176	0.278268
2.177	0.268612
2.178	0.207605
2.179	0.123296
2.18	0.049125
2.181	-0.024763
2.182	-0.133564
2.183	-0.256804
2.184	-0.336609
2.185	-0.380087
2.186	-0.435976
2.187	-0.504286
2.188	-0.538909
2.189	-0.496736
2.19	-0.37269
2.191	-0.207209
2.192	-0.056379
2.193	0.048167
2.194	0.109186
2.195	0.138145
2.196	0.139154
2.197	0.11964
2.198	0.092914
2.199	0.06882
2.2	0.046169
2.201	-0.00117
2.202	-0.103207
2.203	-0.224693
2.204	-0.287559
2.205	-0.275613
2.206	-0.225925
2.207	-0.175935
2.208	-0.175057
2.209	-0.230195
2.21	-0.257834
2.211	-0.195089
2.212	-0.080539
2.213	0.020034
2.214	0.080209
2.215	0.100849
2.216	0.093798
2.217	0.07753
2.218	0.064469
2.219	0.056624
2.22	0.04912
2.221	0.017631
2.222	-0.065488
2.223	-0.168041
2.224	-0.228369
2.225	-0.265158
2.226	-0.347952
2.227	-0.476584
2.228	-0.571422
2.229	-0.555438
2.23	-0.4149
2.231	-0.203365
2.232	-0.000743
2.233	0.13978
2.234	0.207048
2.235	0.208825
2.236	0.161309
2.237	0.096731
2.238	0.050761
2.239	0.037095
2.24	0.041812
2.241	0.024265
2.242	-0.053551
2.243	-0.160923
2.244	-0.233646
2.245	-0.287704
2.246	-0.390205
2.247	-0.538801
2.248	-0.648069
2.249	-0.627981
2.25	-0.454946
2.251	-0.190562
2.252	0.060683
2.253	0.214494
2.254	0.239098
2.255	0.157097
2.256	0.034272
2.257	-0.05078
2.258	-0.056305
2.259	-0.002413
2.26	0.055532
2.261	0.055427
2.262	-0.034311
2.263	-0.15205
2.264	-0.191503
2.265	-0.142946
2.266	-0.094649
2.267	-0.125678
2.268	-0.250873
2.269	-0.389107
2.27	-0.413217
2.271	-0.313329
2.272	-0.216381
2.273	-0.202428
2.274	-0.201237
2.275	-0.106177
2.276	0.059606
2.277	0.154477
2.278	0.098202
2.279	-0.026992
2.28	-0.085176
2.281	-0.049812
2.282	-0.003779
2.283	-0.01196
2.284	-0.089875
2.285	-0.241226
2.286	-0.39883
2.287	-0.435554
2.288	-0.333712
2.289	-0.195761
2.29	-0.087453
2.291	-0.023708
2.292	-0.028611
2.293	-0.096297
2.294	-0.154099
2.295	-0.126987
2.296	-0.032231
2.297	0.032847
2.298	0.011658
2.299	-0.044335
2.3	-0.053658
2.301	-0.019089
2.302	-0.014552
2.303	-0.076482
2.304	-0.185552
2.305	-0.30652
2.306	-0.347107
2.307	-0.221458
2.308	-0.030962
2.309	0.051552
2.31	0.031474
2.311	-0.003821
2.312	-0.054237
2.313	-0.132344
2.314	-0.178085
2.315	-0.129914
2.316	-0.023026
2.317	0.043876
2.318	0.029286
2.319	-0.012671
2.32	-0.016622
2.321	0.005218
2.322	-0.00787
2.323	-0.06395
2.324	-0.122201
2.325	-0.161142
2.326	-0.142428
2.327	-0.03199
2.328	0.073664
2.329	0.05995
2.33	-0.013539
2.331	-0.039781
2.332	-0.023109
2.333	0.001906
2.334	0.056723
2.335	0.159371
2.336	0.251975
2.337	0.252641
2.338	0.15456
2.339	0.030986
2.34	-0.046472
2.341	-0.081997
2.342	-0.132388
2.343	-0.21238
2.344	-0.287788
2.345	-0.328802
2.346	-0.282067
2.347	-0.121454
2.348	0.02713
2.349	0.032934
2.35	-0.038214
2.351	-0.071566
2.352	-0.07735
2.353	-0.106001
2.354	-0.142537
2.355	-0.137527
2.356	-0.081483
2.357	-0.016678
2.358	0.014502
2.359	0.015648
2.36	0.018469
2.361	0.021708
2.362	-0.008942
2.363	-0.072681
2.364	-0.150154
2.365	-0.270191
2.366	-0.445281
2.367	-0.593519
2.368	-0.612651
2.369	-0.484389
2.37	-0.278486
2.371	-0.09159
2.372	0.011325
2.373	0.033102
2.374	0.035594
2.375	0.074228
2.376	0.138445
2.377	0.167734
2.378	0.127877
2.379	0.055304
2.38	0.010064
2.381	-0.0037
2.382	-0.0324
2.383	-0.091752
2.384	-0.172571
2.385	-0.303497
2.386	-0.492026
2.387	-0.653001
2.388	-0.681625
2.389	-0.553629
2.39	-0.330131
2.391	-0.105533
2.392	0.04522
2.393	0.110874
2.394	0.150903
2.395	0.228527
2.396	0.318367
2.397	0.323611
2.398	0.210024
2.399	0.060526
2.4	-0.025965
2.401	-0.041921
2.402	-0.051226
2.403	-0.089923
2.404	-0.164668
2.405	-0.312396
2.406	-0.536964
2.407	-0.736465
2.408	-0.784675
2.409	-0.64455
2.41	-0.384018
2.411	-0.122616
2.412	0.043018
2.413	0.101007
2.414	0.11792
2.415	0.156478
2.416	0.20375
2.417	0.199036
2.418	0.122514
2.419	0.02643
2.42	-0.02263
2.421	-0.022647
2.422	-0.02863
2.423	-0.058768
2.424	-0.086416
2.425	-0.108744
2.426	-0.11986
2.427	-0.106355
2.428	-0.122883
2.429	-0.194353
2.43	-0.211293
2.431	-0.108308
2.432	0.017532
2.433	0.055301
2.434	0.00929
2.435	-0.030891
2.436	-0.004616
2.437	0.051395
2.438	0.065237
2.439	0.029042
2.44	-0.004492
2.441	-0.01314
2.442	-0.024666
2.443	-0.028041
2.444	0.030975
2.445	0.152123
2.446	0.285605
2.447	0.359039
2.448	0.256449
2.449	-0.011184
2.45	-0.209551
2.451	-0.188444
2.452	-0.058995
2.453	0.021836
2.454	0.01816
2.455	-0.025922
2.456	-0.065997
2.457	-0.083056
2.458	-0.079256
2.459	-0.064437
2.46	-0.041935
2.461	-0.027713
2.462	-0.049475
2.463	-0.084174
2.464	-0.068052
2.465	0.01108
2.466	0.120401
2.467	0.200626
2.468	0.135176
2.469	-0.078751
2.47	-0.225425
2.471	-0.169636
2.472	-0.025385
2.473	0.06332
2.474	0.078045
2.475	0.064929
2.476	0.053683
2.477	0.048263
2.478	0.038926
2.479	0.016801
2.48	-0.010593
2.481	-0.043705
2.482	-0.099577
2.483	-0.153264
2.484	-0.143884
2.485	-0.063414
2.486	0.050177
2.487	0.134248
2.488	0.075731
2.489	-0.121571
2.49	-0.244867
2.491	-0.171668
2.492	-0.024732
2.493	0.051955
2.494	0.045625
2.495	0.016055
2.496	0.005804
2.497	0.012797
2.498	0.010515
2.499	-0.011543
2.5	-0.028444
2.501	-0.025778
2.502	-0.023756
2.503	-0.014693
2.504	0.036818
2.505	0.113596
2.506	0.171892
2.507	0.175085
2.508	0.051586
2.509	-0.168376
2.51	-0.269595
2.511	-0.145689
2.512	0.045304
2.513	0.112463
2.514	0.015609
2.515	-0.155176
2.516	-0.274231
2.517	-0.273387
2.518	-0.179417
2.519	-0.063534
2.52	0.029744
2.521	0.07795
2.522	0.055314
2.523	-0.037219
2.524	-0.177056
2.525	-0.340537
2.526	-0.420433
2.527	-0.289107
2.528	-0.048163
2.529	0.090699
2.53	0.119125
2.531	0.110182
2.532	0.030637
2.533	-0.121211
2.534	-0.214288
2.535	-0.128085
2.536	0.075831
2.537	0.200962
2.538	0.13674
2.539	-0.028416
2.54	-0.126929
2.541	-0.092749
2.542	0.012099
2.543	0.102623
2.544	0.128972
2.545	0.095427
2.546	0.114833
2.547	0.272151
2.548	0.39434
2.549	0.295812
2.55	0.11119
2.551	0.02311
2.552	-0.014873
2.553	-0.083956
2.554	-0.125279
2.555	-0.050013
2.556	0.097693
2.557	0.171475
2.558	0.097267
2.559	-0.049447
2.56	-0.138955
2.561	-0.122073
2.562	-0.055465
2.563	-0.022293
2.564	-0.074947
2.565	-0.186677
2.566	-0.191646
2.567	0.024987
2.568	0.2572
2.569	0.259949
2.57	0.135357
2.571	0.069323
2.572	0.033822
2.573	-0.033611
2.574	-0.06056
2.575	0.042347
2.576	0.216063
2.577	0.296273
2.578	0.202987
2.579	0.019396
2.58	-0.111515
2.581	-0.125893
2.582	-0.062186
2.583	0.019315
2.584	0.077439
2.585	0.102166
2.586	0.168874
2.587	0.322596
2.588	0.389715
2.589	0.230657
2.59	0.026964
2.591	-0.029178
2.592	-0.01411
2.593	-0.062433
2.594	-0.16574
2.595	-0.230819
2.596	-0.208706
2.597	-0.139305
2.598	-0.09364
2.599	-0.090461
2.6	-0.084018
2.601	-0.036948
2.602	0.031325
2.603	0.080305
2.604	0.079219
2.605	0.03619
2.606	0.05756
2.607	0.211835
2.608	0.320983
2.609	0.218933
2.61	0.065629
2.611	0.047227
2.612	0.085423
2.613	0.04321
2.614	-0.068398
2.615	-0.143592
2.616	-0.119906
2.617	-0.043776
2.618	-0.007234
2.619	-0.033875
2.62	-0.060505
2.621	-0.031689
2.622	0.041429
2.623	0.123519
2.624	0.182286
2.625	0.198878
2.626	0.230649
2.627	0.321198
2.628	0.326536
2.629	0.144581
2.63	-0.029694
2.631	-0.02605
2.632	0.039944
2.633	0.008317
2.634	-0.111039
2.635	-0.201065
2.636	-0.187825
2.637	-0.110619
2.638	-0.057464
2.639	-0.055541
2.64	-0.052512
2.641	-0.003659
2.642	0.071612
2.643	0.130215
2.644	0.134568
2.645	0.076702
2.646	0.049525
2.647	0.131329
2.648	0.178738
2.649	0.064457
2.65	-0.039419
2.651	0.025555
2.652	0.141482
2.653	0.153479
2.654	0.081291
2.655	0.041253
2.656	0.075065
2.657	0.109086
2.658	0.071369
2.659	-0.014533
2.66	-0.066075
2.661	-0.042596
2.662	0.021436
2.663	0.075465
2.664	0.081768
2.665	0.027697
2.666	-0.006155
2.667	0.055447
2.668	0.085815
2.669	-0.022859
2.67	-0.098828
2.671	-0.003998
2.672	0.122879
2.673	0.117576
2.674	-0.005391
2.675	-0.125802
2.676	-0.159321
2.677	-0.117406
2.678	-0.065527
2.679	-0.040478
2.68	-0.020266
2.681	0.018598
2.682	0.059936
2.683	0.083516
2.684	0.077894
2.685	0.037256
2.686	0.020782
2.687	0.076886
2.688	0.080559
2.689	-0.048008
2.69	-0.115226
2.691	0.014489
2.692	0.179954
2.693	0.183466
2.694	0.013728
2.695	-0.196476
2.696	-0.304488
2.697	-0.26508
2.698	-0.146152
2.699	-0.039655
2.7	0.023614
2.701	0.053265
2.702	0.054687
2.703	0.044447
2.704	0.047079
2.705	0.07791
2.706	0.189741
2.707	0.376982
2.708	0.419165
2.709	0.197934
2.71	-0.015141
2.711	0.002538
2.712	0.097505
2.713	0.056723
2.714	-0.106017
2.715	-0.232795
2.716	-0.239064
2.717	-0.188771
2.718	-0.169921
2.719	-0.171836
2.72	-0.119394
2.721	0.01444
2.722	0.172337
2.723	0.262244
2.724	0.209933
2.725	0.049579
2.726	0.006691
2.727	0.243037
2.728	0.509444
2.729	0.492575
2.73	0.308272
2.731	0.190562
2.732	0.113421
2.733	-0.009346
2.734	-0.120221
2.735	-0.122613
2.736	-0.026142
2.737	0.076592
2.738	0.122398
2.739	0.119009
2.74	0.105241
2.741	0.104887
2.742	0.118548
2.743	0.132153
2.744	0.109018
2.745	0.049886
2.746	0.098738
2.747	0.349155
2.748	0.550199
2.749	0.444895
2.75	0.205223
2.751	0.083463
2.752	0.041112
2.753	-0.027914
2.754	-0.078972
2.755	-0.02173
2.756	0.118601
2.757	0.209868
2.758	0.157843
2.759	0.007312
2.76	-0.112643
2.761	-0.123134
2.762	-0.040567
2.763	0.082974
2.764	0.199304
2.765	0.294005
2.766	0.420628
2.767	0.561906
2.768	0.521882
2.769	0.239161
2.77	-0.022703
2.771	-0.072301
2.772	-0.02975
2.773	-0.052293
2.774	-0.11553
2.775	-0.10197
2.776	0.015416
2.777	0.124682
2.778	0.111822
2.779	-0.002279
2.78	-0.099485
2.781	-0.1024
2.782	-0.028877
2.783	0.055522
2.784	0.077514
2.785	0.014778
2.786	-0.018224
2.787	0.083977
2.788	0.173833
2.789	0.087246
2.79	-0.031978
2.791	-0.015003
2.792	0.050341
2.793	0.034736
2.794	-0.025065
2.795	-0.010456
2.796	0.096841
2.797	0.178897
2.798	0.136128
2.799	0.009689
2.8	-0.08124
2.801	-0.073484
2.802	0.004272
2.803	0.085823
2.804	0.098805
2.805	0.017473
2.806	-0.042523
2.807	0.035105
2.808	0.113315
2.809	0.033163
2.81	-0.062505
2.811	-0.017614
2.812	0.060307
2.813	0.025597
2.814	-0.092987
2.815	-0.163336
2.816	-0.121408
2.817	-0.034373
2.818	0.002577
2.819	-0.017016
2.82	-0.024893
2.821	0.020693
2.822	0.091479
2.823	0.126113
2.824	0.055351
2.825	-0.139834
2.826	-0.330418
2.827	-0.360824
2.828	-0.287919
2.829	-0.233975
2.83	-0.140228
2.831	0.041077
2.832	0.18155
2.833	0.176469
2.834	0.086559
2.835	0.033928
2.836	0.055777
2.837	0.089154
2.838	0.070545
2.839	0.01379
2.84	-0.016666
2.841	0.008448
2.842	0.059109
2.843	0.092577
2.844	0.069988
2.845	-0.01578
2.846	-0.065548
2.847	0.00581
2.848	0.060771
2.849	-0.026545
2.85	-0.091781
2.851	0.011484
2.852	0.159017
2.853	0.193941
2.854	0.121243
2.855	0.032528
2.856	-0.012533
2.857	-0.016446
2.858	-0.013165
2.859	-0.019592
2.86	-0.017675
2.861	0.003071
2.862	0.019437
2.863	0.00034
2.864	-0.081137
2.865	-0.21269
2.866	-0.271449
2.867	-0.161277
2.868	-0.035538
2.869	-0.053668
2.87	-0.077955
2.871	0.031675
2.872	0.162417
2.873	0.180032
2.874	0.114367
2.875	0.068775
2.876	0.087158
2.877	0.128678
2.878	0.13043
2.879	0.080604
2.88	0.022892
2.881	-0.009592
2.882	-0.023388
2.883	-0.031748
2.884	-0.052098
2.885	-0.097449
2.886	-0.103418
2.887	-0.015829
2.888	0.029829
2.889	-0.069021
2.89	-0.135558
2.891	-0.028307
2.892	0.121219
2.893	0.155294
2.894	0.08803
2.895	0.02679
2.896	0.03556
2.897	0.090312
2.898	0.123634
2.899	0.099689
2.9	0.042818
2.901	-0.010335
2.902	-0.050093
2.903	-0.080373
2.904	-0.125202
2.905	-0.216809
2.906	-0.30826
2.907	-0.323155
2.908	-0.313265
2.909	-0.326922
2.91	-0.247478
2.911	-0.019365
2.912	0.208679
2.913	0.297217
2.914	0.270808
2.915	0.234475
2.916	0.234385
2.917	0.225191
2.918	0.149763
2.919	0.024045
2.92	-0.077826
2.921	-0.111049
2.922	-0.083402
2.923	-0.003465
2.924	0.123143
2.925	0.27118
2.926	0.42243
2.927	0.506166
2.928	0.364641
2.929	0.027531
2.93	-0.210241
2.931	-0.226021
2.932	-0.214948
2.933	-0.317787
2.934	-0.428056
2.935	-0.387118
2.936	-0.216448
2.937	-0.089689
2.938	-0.107594
2.939	-0.188298
2.94	-0.188313
2.941	-0.06267
2.942	0.112395
2.943	0.210113
2.944	0.133125
2.945	-0.05952
2.946	-0.110569
2.947	0.118429
2.948	0.372452
2.949	0.382659
2.95	0.251588
2.951	0.150493
2.952	0.041735
2.953	-0.124962
2.954	-0.258338
2.955	-0.253049
2.956	-0.143286
2.957	-0.062394
2.958	-0.082372
2.959	-0.143804
2.96	-0.138085
2.961	-0.025144
2.962	0.139476
2.963	0.250174
2.964	0.205776
2.965	0.015391
2.966	-0.129514
2.967	-0.080852
2.968	0.010849
2.969	-0.019507
2.97	-0.037307
2.971	0.085526
2.972	0.212725
2.973	0.174182
2.974	-0.030458
2.975	-0.271656
2.976	-0.395928
2.977	-0.328848
2.978	-0.135219
2.979	0.048528
2.98	0.142699
2.981	0.15239
2.982	0.118539
2.983	0.09147
2.984	0.105415
2.985	0.174865
2.986	0.319688
2.987	0.463959
2.988	0.400436
2.989	0.121041
2.99	-0.063143
2.991	0.027779
2.992	0.224786
2.993	0.312599
2.994	0.249347
2.995	0.115494
2.996	0.013025
2.997	-0.007576
2.998	0.013736
2.999	0.007636
3.0	-0.019911
3.001	-0.003064
3.002	0.079967
3.003	0.165638
3.004	0.160232
3.005	0.076388
3.006	0.091541
3.007	0.28646
3.008	0.427894
3.009	0.32337
3.01	0.133464
3.011	0.035795
3.012	-0.029455
3.013	-0.125338
3.014	-0.168477
3.015	-0.076881
3.016	0.08969
3.017	0.18157
3.018	0.118675
3.019	-0.027814
3.02	-0.116129
3.021	-0.072886
3.022	0.067807
3.023	0.215868
3.024	0.277244
3.025	0.245191
3.026	0.25778
3.027	0.381765
3.028	0.421107
3.029	0.245589
3.03	0.056413
3.031	0.026526
3.032	0.053465
3.033	0.014223
3.034	-0.044275
3.035	-0.020752
3.036	0.070979
3.037	0.113986
3.038	0.041858
3.039	-0.083036
3.04	-0.143659
3.041	-0.085831
3.042	0.04911
3.043	0.168352
3.044	0.178759
3.045	0.089046
3.046	0.068465
3.047	0.205724
3.048	0.29661
3.049	0.185434
3.05	0.050555
3.051	0.048944
3.052	0.073296
3.053	0.007841
3.054	-0.093253
3.055	-0.123859
3.056	-0.078528
3.057	-0.04077
3.058	-0.063251
3.059	-0.108988
3.06	-0.101501
3.061	-0.010964
3.062	0.120475
3.063	0.213301
3.064	0.191831
3.065	0.077497
3.066	0.04188
3.067	0.172357
3.068	0.268638
3.069	0.178335
3.07	0.07044
3.071	0.082648
3.072	0.093051
3.073	-0.015855
3.074	-0.177162
3.075	-0.25447
3.076	-0.206528
3.077	-0.112719
3.078	-0.062756
3.079	-0.055513
3.08	-0.023673
3.081	0.064267
3.082	0.163535
3.083	0.18949
3.084	0.07564
3.085	-0.118816
3.086	-0.17433
3.087	0.012683
3.088	0.209665
3.089	0.21325
3.09	0.162521
3.091	0.197684
3.092	0.214178
3.093	0.104447
3.094	-0.066927
3.095	-0.166128
3.096	-0.142558
3.097	-0.061968
3.098	-0.013979
3.099	-0.008309
3.1	0.01507
3.101	0.087429
3.102	0.167593
3.103	0.178196
3.104	0.062772
3.105	-0.115011
3.106	-0.144417
3.107	0.059876
3.108	0.254245
3.109	0.240939
3.11	0.169213
3.111	0.186028
3.112	0.195469
3.113	0.096634
3.114	-0.056114
3.115	-0.156634
3.116	-0.165373
3.117	-0.117427
3.118	-0.068558
3.119	-0.037468
3.12	0.004531
3.121	0.078411
3.122	0.157755
3.123	0.185352
3.124	0.10624
3.125	-0.056125
3.126	-0.153554
3.127	-0.096869
3.128	-0.013599
3.129	-0.005726
3.13	0.025529
3.131	0.129492
3.132	0.191684
3.133	0.146618
3.134	0.06984
3.135	0.048327
3.136	0.080089
3.137	0.104571
3.138	0.075075
3.139	0.006182
3.14	-0.037816
3.141	-0.015504
3.142	0.053392
3.143	0.123776
3.144	0.164288
3.145	0.198747
3.146	0.293547
3.147	0.393695
3.148	0.322885
3.149	0.101856
3.15	-0.030055
3.151	0.001092
3.152	0.029609
3.153	-0.058382
3.154	-0.193126
3.155	-0.240752
3.156	-0.15419
3.157	-0.016483
3.158	0.052733
3.159	0.028695
3.16	-0.010138
3.161	0.005064
3.162	0.068281
3.163	0.13968
3.164	0.199772
3.165	0.292123
3.166	0.492194
3.167	0.707936
3.168	0.673364
3.169	0.363932
3.17	0.097453
3.171	0.051957
3.172	0.075834
3.173	0.000875
3.174	-0.151009
3.175	-0.245334
3.176	-0.204235
3.177	-0.089525
3.178	-0.016389
3.179	-0.016559
3.18	-0.025918
3.181	0.014534
3.182	0.100829
3.183	0.202711
3.184	0.303798
3.185	0.43017
3.186	0.628861
3.187	0.7995
3.188	0.699312
3.189	0.33662
3.19	0.045065
3.191	-0.003272
3.192	0.033619
3.193	-0.004553
3.194	-0.097907
3.195	-0.150828
3.196	-0.126286
3.197	-0.070731
3.198	-0.047076
3.199	-0.06251
3.2	-0.06519
3.201	-0.013184
3.202	0.085433
3.203	0.208145
3.204	0.343869
3.205	0.50502
3.206	0.711338
3.207	0.848368
3.208	0.690267
3.209	0.282131
3.21	-0.01763
3.211	-0.041555
3.212	0.032264
3.213	0.021263
3.214	-0.076684
3.215	-0.172794
3.216	-0.20274
3.217	-0.168018
3.218	-0.116165
3.219	-0.080436
3.22	-0.041697
3.221	0.025484
3.222	0.108012
3.223	0.181015
3.224	0.233653
3.225	0.28696
3.226	0.376944
3.227	0.427498
3.228	0.285434
3.229	0.024522
3.23	-0.080339
3.231	0.031305
3.232	0.139799
3.233	0.059408
3.234	-0.192327
3.235	-0.450507
3.236	-0.542714
3.237	-0.429159
3.238	-0.22059
3.239	-0.042493
3.24	0.07335
3.241	0.147576
3.242	0.192302
3.243	0.222497
3.244	0.261581
3.245	0.334634
3.246	0.448046
3.247	0.498261
3.248	0.334906
3.249	0.045486
3.25	-0.09931
3.251	-0.050521
3.252	-0.001672
3.253	-0.050979
3.254	-0.106144
3.255	-0.079084
3.256	-0.017098
3.257	-0.021526
3.258	-0.108706
3.259	-0.184103
3.26	-0.143748
3.261	0.014304
3.262	0.19175
3.263	0.266867
3.264	0.174441
3.265	0.010614
3.266	0.004435
3.267	0.207506
3.268	0.372369
3.269	0.340559
3.27	0.241279
3.271	0.177932
3.272	0.08922
3.273	-0.044145
3.274	-0.124626
3.275	-0.088182
3.276	-0.002206
3.277	0.020321
3.278	-0.04722
3.279	-0.122889
3.28	-0.111709
3.281	-0.005801
3.282	0.12113
3.283	0.181869
3.284	0.132435
3.285	0.051182
3.286	0.11565
3.287	0.332111
3.288	0.451282
3.289	0.353208
3.29	0.20656
3.291	0.125236
3.292	0.027727
3.293	-0.136864
3.294	-0.273574
3.295	-0.271661
3.296	-0.153749
3.297	-0.048252
3.298	-0.034064
3.299	-0.065185
3.3	-0.053496
3.301	0.021331
3.302	0.108903
3.303	0.149605
3.304	0.119952
3.305	0.095772
3.306	0.22293
3.307	0.46504
3.308	0.555345
3.309	0.397267
3.31	0.203559
3.311	0.124757
3.312	0.08702
3.313	0.010728
3.314	-0.053912
3.315	-0.026199
3.316	0.067251
3.317	0.113103
3.318	0.053978
3.319	-0.048517
3.32	-0.100591
3.321	-0.079115
3.322	-0.020625
3.323	0.050475
3.324	0.153441
3.325	0.364055
3.326	0.724319
3.327	1.026595
3.328	0.943543
3.329	0.509945
3.33	0.102653
3.331	-0.0745
3.332	-0.120348
3.333	-0.14744
3.334	-0.138899
3.335	-0.055345
3.336	0.054836
3.337	0.094161
3.338	0.032403
3.339	-0.056423
3.34	-0.078499
3.341	-0.017319
3.342	0.062485
3.343	0.05951
3.344	-0.132758
3.345	-0.53659
3.346	-0.995809
3.347	-1.26418
3.348	-1.200769
3.349	-0.852099
3.35	-0.398365
3.351	-0.037483
3.352	0.135413
3.353	0.17242
3.354	0.186713
3.355	0.219665
3.356	0.230415
3.357	0.191721
3.358	0.126411
3.359	0.070512
3.36	0.03814
3.361	0.006748
3.362	-0.061964
3.363	-0.199148
3.364	-0.438773
3.365	-0.7741
3.366	-1.084544
3.367	-1.198388
3.368	-1.036625
3.369	-0.667895
3.37	-0.266887
3.371	-0.019634
3.372	-0.004414
3.373	-0.141548
3.374	-0.286015
3.375	-0.350293
3.376	-0.316169
3.377	-0.198438
3.378	-0.037409
3.379	0.118003
3.38	0.229945
3.381	0.263346
3.382	0.18625
3.383	-0.025662
3.384	-0.393164
3.385	-0.863915
3.386	-1.241932
3.387	-1.304994
3.388	-1.003767
3.389	-0.503167
3.39	-0.060331
3.391	0.129838
3.392	0.050585
3.393	-0.134851
3.394	-0.256577
3.395	-0.285676
3.396	-0.259997
3.397	-0.177269
3.398	-0.027101
3.399	0.156563
3.4	0.307163
3.401	0.361115
3.402	0.305574
3.403	0.201815
3.404	0.137949
3.405	0.186506
3.406	0.360446
3.407	0.520652
3.408	0.478793
3.409	0.278238
3.41	0.139091
3.411	0.128053
3.412	0.129949
3.413	0.069636
3.414	-0.024136
3.415	-0.09772
3.416	-0.114853
3.417	-0.067535
3.418	0.018739
3.419	0.107091
3.42	0.166545
3.421	0.170133
3.422	0.133699
3.423	0.156064
3.424	0.346635
3.425	0.708874
3.426	1.076517
3.427	1.143313
3.428	0.753207
3.429	0.189238
3.43	-0.104884
3.431	-0.009018
3.432	0.279892
3.433	0.550928
3.434	0.734391
3.435	0.850319
3.436	0.884799
3.437	0.770501
3.438	0.489388
3.439	0.133321
3.44	-0.171912
3.441	-0.365263
3.442	-0.409342
3.443	-0.200845
3.444	0.337852
3.445	1.062378
3.446	1.561553
3.447	1.395115
3.448	0.576533
3.449	-0.299278
3.45	-0.687908
3.451	-0.607492
3.452	-0.385081
3.453	-0.225691
3.454	-0.113513
3.455	0.025407
3.456	0.151203
3.457	0.145954
3.458	-0.011824
3.459	-0.19675
3.46	-0.275339
3.461	-0.237321
3.462	-0.164156
3.463	-0.140678
3.464	-0.226638
3.465	-0.411201
3.466	-0.590027
3.467	-0.667831
3.468	-0.622553
3.469	-0.465288
3.47	-0.247813
3.471	-0.063728
3.472	0.035518
3.473	0.096824
3.474	0.209372
3.475	0.372415
3.476	0.456095
3.477	0.349871
3.478	0.105052
3.479	-0.114712
3.48	-0.200356
3.481	-0.181206
3.482	-0.143707
3.483	-0.135121
3.484	-0.163843
3.485	-0.201979
3.486	-0.212634
3.487	-0.233336
3.488	-0.298115
3.489	-0.318052
3.49	-0.222267
3.491	-0.08605
3.492	-0.01574
3.493	-0.022318
3.494	-0.034239
3.495	-0.000948
3.496	0.042816
3.497	0.033484
3.498	-0.030144
3.499	-0.079736
3.5	-0.065723
3.501	-0.025179
3.502	-0.037901
3.503	-0.168308
3.504	-0.455413
3.505	-0.846546
3.506	-1.145287
3.507	-1.153582
3.508	-0.861645
3.509	-0.437417
3.51	-0.077392
3.511	0.102227
3.512	0.098199
3.513	0.005968
3.514	-0.05124
3.515	-0.027089
3.516	0.022346
3.517	0.029945
3.518	0.002542
3.519	-6.5e-05
3.52	0.0464
3.521	0.091036
3.522	0.065271
3.523	-0.070907
3.524	-0.341485
3.525	-0.702912
3.526	-0.983487
3.527	-1.002507
3.528	-0.74517
3.529	-0.360163
3.53	-0.029556
3.531	0.135592
3.532	0.135132
3.533	0.064643
3.534	0.03237
3.535	0.059142
3.536	0.084713
3.537	0.066121
3.538	0.026759
3.539	0.01683
3.54	0.045956
3.541	0.064705
3.542	0.02801
3.543	-0.056734
3.544	-0.155413
3.545	-0.209638
3.546	-0.173225
3.547	-0.114516
3.548	-0.117482
3.549	-0.12078
3.55	-0.048371
3.551	0.048736
3.552	0.092087
3.553	0.093343
3.554	0.131913
3.555	0.239977
3.556	0.339972
3.557	0.328821
3.558	0.203047
3.559	0.058717
3.56	-0.028039
3.561	-0.071128
3.562	-0.105354
3.563	-0.108858
3.564	-0.025886
3.565	0.193194
3.566	0.505459
3.567	0.677495
3.568	0.515582
3.569	0.175694
3.57	-0.045774
3.571	-0.080616
3.572	-0.052327
3.573	-0.050196
3.574	-0.048587
3.575	0.012941
3.576	0.117622
3.577	0.171811
3.578	0.122781
3.579	0.02371
3.58	-0.047699
3.581	-0.079928
3.582	-0.094073
3.583	-0.085338
3.584	-0.046888
3.585	0.015519
3.586	0.071409
3.587	0.032214
3.588	-0.124011
3.589	-0.248973
3.59	-0.222858
3.591	-0.11224
3.592	-0.039295
3.593	-0.032735
3.594	-0.035746
3.595	-0.001947
3.596	0.043789
3.597	0.048643
3.598	0.009013
3.599	-0.027679
3.6	-0.030046
3.601	-0.020944
3.602	-0.02739
3.603	-0.03269
3.604	-0.007707
3.605	0.074694
3.606	0.214186
3.607	0.296311
3.608	0.197795
3.609	0.00855
3.61	-0.078258
3.611	-0.034151
3.612	0.025565
3.613	0.019724
3.614	-0.04384
3.615	-0.117105
3.616	-0.158016
3.617	-0.150829
3.618	-0.107408
3.619	-0.044898
3.62	0.021713
3.621	0.061924
3.622	0.052002
3.623	-0.002979
3.624	-0.101473
3.625	-0.234607
3.626	-0.35917
3.627	-0.444278
3.628	-0.466358
3.629	-0.374243
3.63	-0.175985
3.631	0.011671
3.632	0.075934
3.633	0.005669
3.634	-0.133003
3.635	-0.259682
3.636	-0.310943
3.637	-0.262673
3.638	-0.143415
3.639	-0.003989
3.64	0.109068
3.641	0.153136
3.642	0.12281
3.643	0.066878
3.644	0.031506
3.645	0.029847
3.646	0.032824
3.647	-0.04291
3.648	-0.200493
3.649	-0.278903
3.65	-0.175457
3.651	0.004287
3.652	0.108091
3.653	0.095567
3.654	0.016847
3.655	-0.071411
3.656	-0.130931
3.657	-0.132526
3.658	-0.0721
3.659	0.02322
3.66	0.106905
3.661	0.127634
3.662	0.069578
3.663	-0.042216
3.664	-0.1853
3.665	-0.302969
3.666	-0.297402
3.667	-0.180544
3.668	-0.064408
3.669	0.018787
3.67	0.081511
3.671	0.075456
3.672	-0.032993
3.673	-0.172586
3.674	-0.217309
3.675	-0.128108
3.676	-0.009093
3.677	0.014588
3.678	-0.056111
3.679	-0.109516
3.68	-0.071868
3.681	0.016112
3.682	0.078696
3.683	0.081684
3.684	0.036253
3.685	0.029885
3.686	0.1457
3.687	0.267811
3.688	0.231819
3.689	0.111728
3.69	0.050888
3.691	0.019901
3.692	-0.074994
3.693	-0.222987
3.694	-0.309676
3.695	-0.253916
3.696	-0.117654
3.697	-0.033089
3.698	-0.041362
3.699	-0.067421
3.7	-0.046152
3.701	0.004127
3.702	0.049495
3.703	0.095166
3.704	0.155781
3.705	0.261266
3.706	0.410154
3.707	0.455908
3.708	0.287096
3.709	0.056059
3.71	-0.051389
3.711	-0.062421
3.712	-0.086102
3.713	-0.134158
3.714	-0.131933
3.715	-0.048349
3.716	0.043605
3.717	0.057294
3.718	-0.005216
3.719	-0.069134
3.72	-0.085381
3.721	-0.074226
3.722	-0.060858
3.723	-0.032572
3.724	0.031896
3.725	0.169833
3.726	0.369531
3.727	0.451446
3.728	0.282965
3.729	0.029758
3.73	-0.092448
3.731	-0.093216
3.732	-0.088807
3.733	-0.113185
3.734	-0.108323
3.735	-0.038528
3.736	0.041887
3.737	0.057421
3.738	0.00634
3.739	-0.048215
3.74	-0.066431
3.741	-0.067208
3.742	-0.064465
3.743	-0.034952
3.744	0.041765
3.745	0.19191
3.746	0.393212
3.747	0.463472
3.748	0.275246
3.749	0.007028
3.75	-0.109016
3.751	-0.076974
3.752	-0.028362
3.753	-0.030034
3.754	-0.057168
3.755	-0.069885
3.756	-0.06463
3.757	-0.058805
3.758	-0.059036
3.759	-0.053958
3.76	-0.04205
3.761	-0.044303
3.762	-0.055635
3.763	-0.032297
3.764	0.053835
3.765	0.220404
3.766	0.43351
3.767	0.512368
3.768	0.338837
3.769	0.087921
3.77	-0.028436
3.771	-0.02703
3.772	-0.020586
3.773	-0.032516
3.774	-0.009574
3.775	0.063256
3.776	0.128328
3.777	0.130514
3.778	0.078162
3.779	0.023314
3.78	-0.008368
3.781	-0.03952
3.782	-0.075091
3.783	-0.082405
3.784	-0.049234
3.785	0.028593
3.786	0.141235
3.787	0.181661
3.788	0.067415
3.789	-0.087462
3.79	-0.129678
3.791	-0.062856
3.792	0.019421
3.793	0.072499
3.794	0.121711
3.795	0.183533
3.796	0.222001
3.797	0.196076
3.798	0.113036
3.799	0.019901
3.8	-0.05436
3.801	-0.118028
3.802	-0.161841
3.803	-0.163101
3.804	-0.163688
3.805	-0.232362
3.806	-0.355717
3.807	-0.456303
3.808	-0.479884
3.809	-0.417675
3.81	-0.290435
3.811	-0.145868
3.812	-0.034171
3.813	0.050702
3.814	0.168285
3.815	0.328852
3.816	0.439314
3.817	0.405351
3.818	0.247642
3.819	0.06825
3.82	-0.069184
3.821	-0.173362
3.822	-0.25317
3.823	-0.308141
3.824	-0.387975
3.825	-0.528024
3.826	-0.656844
3.827	-0.683141
3.828	-0.603701
3.829	-0.460146
3.83	-0.275588
3.831	-0.078271
3.832	0.082332
3.833	0.186154
3.834	0.266526
3.835	0.345043
3.836	0.381085
3.837	0.328725
3.838	0.207156
3.839	0.077726
3.84	-0.030853
3.841	-0.136399
3.842	-0.241957
3.843	-0.342119
3.844	-0.482756
3.845	-0.68169
3.846	-0.836237
3.847	-0.837249
3.848	-0.69555
3.849	-0.481513
3.85	-0.236562
3.851	0.003605
3.852	0.177297
3.853	0.244119
3.854	0.230682
3.855	0.19318
3.856	0.160164
3.857	0.133292
3.858	0.111086
3.859	0.089555
3.86	0.044401
3.861	-0.053053
3.862	-0.180096
3.863	-0.294076
3.864	-0.418228
3.865	-0.580465
3.866	-0.716644
3.867	-0.746129
3.868	-0.66417
3.869	-0.498517
3.87	-0.264883
3.871	-0.0047
3.872	0.199437
3.873	0.283291
3.874	0.248468
3.875	0.140336
3.876	0.011372
3.877	-0.096539
3.878	-0.156889
3.879	-0.151903
3.88	-0.09573
3.881	-0.04399
3.882	-0.042352
3.883	-0.140159
3.884	-0.408688
3.885	-0.78143
3.886	-0.9933
3.887	-0.865005
3.888	-0.516673
3.889	-0.182041
3.89	0.046417
3.891	0.204354
3.892	0.310666
3.893	0.336898
3.894	0.274215
3.895	0.160461
3.896	0.06105
3.897	0.034719
3.898	0.08257
3.899	0.137837
3.9	0.114355
3.901	-0.023189
3.902	-0.21493
3.903	-0.384875
3.904	-0.551195
3.905	-0.731241
3.906	-0.811236
3.907	-0.687562
3.908	-0.438047
3.909	-0.215787
3.91	-0.081675
3.911	-0.020988
3.912	-0.019004
3.913	-0.041851
3.914	-0.020382
3.915	0.063546
3.916	0.134573
3.917	0.12258
3.918	0.050087
3.919	-0.01195
3.92	-0.04385
3.921	-0.080435
3.922	-0.131031
3.923	-0.201645
3.924	-0.35499
3.925	-0.585738
3.926	-0.727738
3.927	-0.652803
3.928	-0.439502
3.929	-0.240884
3.93	-0.114796
3.931	-0.044443
3.932	-0.010015
3.933	0.031169
3.934	0.141489
3.935	0.299208
3.936	0.383391
3.937	0.318491
3.938	0.161446
3.939	0.019647
3.94	-0.070037
3.941	-0.140861
3.942	-0.209758
3.943	-0.295737
3.944	-0.469317
3.945	-0.71518
3.946	-0.850049
3.947	-0.743584
3.948	-0.488185
3.949	-0.254017
3.95	-0.109718
3.951	-0.045203
3.952	-0.051344
3.953	-0.093338
3.954	-0.088355
3.955	0.003731
3.956	0.116173
3.957	0.156248
3.958	0.115186
3.959	0.054449
3.96	0.005606
3.961	-0.048319
3.962	-0.10425
3.963	-0.166478
3.964	-0.304304
3.965	-0.521777
3.966	-0.66598
3.967	-0.615483
3.968	-0.432785
3.969	-0.244863
3.97	-0.097683
3.971	0.011674
3.972	0.062762
3.973	0.050514
3.974	0.029897
3.975	0.050004
3.976	0.086468
3.977	0.087839
3.978	0.053182
3.979	0.0206
3.98	-0.002375
3.981	-0.038975
3.982	-0.077701
3.983	-0.103891
3.984	-0.164222
3.985	-0.259106
3.986	-0.288644
3.987	-0.232872
3.988	-0.186933
3.989	-0.174989
3.99	-0.133735
3.991	-0.052756
3.992	0.012725
3.993	0.045031
3.994	0.089097
3.995	0.160457
3.996	0.202114
3.997	0.16637
3.998	0.08149
3.999	0.008299
4.0	-0.03791
4.001	-0.080748
4.002	-0.104919
4.003	-0.071091
4.004	0.015279
4.005	0.164506
4.006	0.375106
4.007	0.464829
4.008	0.268664
4.009	-0.039102
4.01	-0.174598
4.011	-0.10621
4.012	0.008306
4.013	0.052293
4.014	0.03285
4.015	0.007856
4.016	0.000572
4.017	-0.002066
4.018	-0.010837
4.019	-0.018701
4.02	-0.026212
4.021	-0.046332
4.022	-0.0618
4.023	-0.05961
4.024	-0.096351
4.025	-0.201813
4.026	-0.304017
4.027	-0.357108
4.028	-0.380667
4.029	-0.346936
4.03	-0.211718
4.031	-0.027227
4.032	0.093002
4.033	0.098185
4.034	0.042305
4.035	0.002917
4.036	-1e-05
4.037	0.008334
4.038	0.009389
4.039	0.008189
4.04	0.000748
4.041	-0.030865
4.042	-0.066081
4.043	-0.072052
4.044	-0.072101
4.045	-0.076225
4.046	-0.055336
4.047	-0.067327
4.048	-0.176992
4.049	-0.273365
4.05	-0.218493
4.051	-0.055329
4.052	0.077381
4.053	0.115717
4.054	0.092734
4.055	0.049997
4.056	0.00206
4.057	-0.031469
4.058	-0.031149
4.059	-0.005758
4.06	0.004396
4.061	-0.033107
4.062	-0.085923
4.063	-0.101009
4.064	-0.090957
4.065	-0.07635
4.066	-0.050341
4.067	-0.078959
4.068	-0.210075
4.069	-0.308968
4.07	-0.232963
4.071	-0.04334
4.072	0.094211
4.073	0.103404
4.074	0.042575
4.075	-0.003493
4.076	-0.01454
4.077	-0.005497
4.078	0.017523
4.079	0.043541
4.08	0.037691
4.081	-0.024577
4.082	-0.108094
4.083	-0.172145
4.084	-0.251464
4.085	-0.371945
4.086	-0.473903
4.087	-0.520436
4.088	-0.520263
4.089	-0.432162
4.09	-0.230933
4.091	-0.011229
4.092	0.097545
4.093	0.092047
4.094	0.107216
4.095	0.222619
4.096	0.328809
4.097	0.280715
4.098	0.103635
4.099	-0.04969
4.1	-0.092172
4.101	-0.061767
4.102	-0.028372
4.103	-0.059933
4.104	-0.197843
4.105	-0.308488
4.106	-0.184214
4.107	0.079002
4.108	0.195113
4.109	0.137611
4.11	0.067982
4.111	0.02328
4.112	-0.055375
4.113	-0.144174
4.114	-0.133408
4.115	0.009619
4.116	0.178103
4.117	0.261319
4.118	0.252493
4.119	0.197523
4.12	0.108591
4.121	-0.023099
4.122	-0.165449
4.123	-0.280191
4.124	-0.365809
4.125	-0.349912
4.126	-0.137067
4.127	0.124503
4.128	0.188379
4.129	0.094816
4.13	0.04212
4.131	0.064837
4.132	0.070445
4.133	0.033874
4.134	0.028628
4.135	0.088637
4.136	0.139345
4.137	0.104051
4.138	0.005824
4.139	-0.069344
4.14	-0.077096
4.141	-0.042115
4.142	-0.004643
4.143	-0.029861
4.144	-0.194603
4.145	-0.412405
4.146	-0.462384
4.147	-0.323445
4.148	-0.17732
4.149	-0.08785
4.15	0.004496
4.151	0.086367
4.152	0.092233
4.153	0.040223
4.154	0.027922
4.155	0.092543
4.156	0.155114
4.157	0.131539
4.158	0.038695
4.159	-0.036413
4.16	-0.042218
4.161	0.002892
4.162	0.060722
4.163	0.063826
4.164	-0.078983
4.165	-0.310061
4.166	-0.422455
4.167	-0.365104
4.168	-0.269066
4.169	-0.172749
4.17	-0.033234
4.171	0.094525
4.172	0.108949
4.173	0.018591
4.174	-0.052245
4.175	-0.016341
4.176	0.071951
4.177	0.101617
4.178	0.049139
4.179	-0.009708
4.18	-0.010222
4.181	0.040988
4.182	0.106531
4.183	0.114784
4.184	-0.030476
4.185	-0.280721
4.186	-0.43549
4.187	-0.428688
4.188	-0.356865
4.189	-0.236506
4.19	-0.03683
4.191	0.15768
4.192	0.224727
4.193	0.165236
4.194	0.097905
4.195	0.098604
4.196	0.11195
4.197	0.058811
4.198	-0.040206
4.199	-0.095907
4.2	-0.063517
4.201	0.024673
4.202	0.118988
4.203	0.167808
4.204	0.146985
4.205	0.191854
4.206	0.43847
4.207	0.655057
4.208	0.538416
4.209	0.244171
4.21	0.085079
4.211	0.05794
4.212	-0.010616
4.213	-0.157694
4.214	-0.259438
4.215	-0.222672
4.216	-0.113562
4.217	-0.056856
4.218	-0.075971
4.219	-0.090738
4.22	-0.036743
4.221	0.072703
4.222	0.189034
4.223	0.249893
4.224	0.220545
4.225	0.231681
4.226	0.42656
4.227	0.595683
4.228	0.461961
4.229	0.192549
4.23	0.088312
4.231	0.121466
4.232	0.100615
4.233	-0.019855
4.234	-0.122036
4.235	-0.112056
4.236	-0.041925
4.237	-0.019721
4.238	-0.064378
4.239	-0.095452
4.24	-0.043461
4.241	0.078127
4.242	0.20927
4.243	0.274384
4.244	0.233376
4.245	0.216178
4.246	0.368521
4.247	0.498158
4.248	0.356484
4.249	0.120004
4.25	0.062792
4.251	0.118982
4.252	0.081338
4.253	-0.087002
4.254	-0.250144
4.255	-0.288762
4.256	-0.22351
4.257	-0.152832
4.258	-0.123021
4.259	-0.088055
4.26	0.006594
4.261	0.145783
4.262	0.269162
4.263	0.302305
4.264	0.214571
4.265	0.150743
4.266	0.268568
4.267	0.387981
4.268	0.271716
4.269	0.090655
4.27	0.094098
4.271	0.196478
4.272	0.190761
4.273	0.044621
4.274	-0.117571
4.275	-0.192595
4.276	-0.187173
4.277	-0.161241
4.278	-0.143948
4.279	-0.105602
4.28	-0.012261
4.281	0.117856
4.282	0.241978
4.283	0.320309
4.284	0.350369
4.285	0.454291
4.286	0.696166
4.287	0.788441
4.288	0.49532
4.289	0.11642
4.29	0.005598
4.291	0.073491
4.292	0.073621
4.293	-0.04112
4.294	-0.150673
4.295	-0.168396
4.296	-0.12362
4.297	-0.088801
4.298	-0.091559
4.299	-0.091361
4.3	-0.038125
4.301	0.066047
4.302	0.184693
4.303	0.267832
4.304	0.280111
4.305	0.299292
4.306	0.402689
4.307	0.412884
4.308	0.179113
4.309	-0.056972
4.31	-0.054628
4.311	0.052568
4.312	0.038446
4.313	-0.106903
4.314	-0.231225
4.315	-0.231648
4.316	-0.145782
4.317	-0.069759
4.318	-0.048454
4.319	-0.045307
4.32	-0.006844
4.321	0.069583
4.322	0.150403
4.323	0.195335
4.324	0.203022
4.325	0.300636
4.326	0.555182
4.327	0.67542
4.328	0.420844
4.329	0.086472
4.33	0.015001
4.331	0.101162
4.332	0.08601
4.333	-0.070621
4.334	-0.207946
4.335	-0.195837
4.336	-0.076431
4.337	0.018571
4.338	0.025224
4.339	-0.007684
4.34	-0.005634
4.341	0.048189
4.342	0.127371
4.343	0.194423
4.344	0.243302
4.345	0.381446
4.346	0.644377
4.347	0.727858
4.348	0.416958
4.349	0.043175
4.35	-0.034602
4.351	0.074424
4.352	0.097661
4.353	-0.02716
4.354	-0.167481
4.355	-0.197111
4.356	-0.117862
4.357	-0.023472
4.358	0.009971
4.359	-0.005638
4.36	-0.011127
4.361	0.023149
4.362	0.097763
4.363	0.206608
4.364	0.366351
4.365	0.676597
4.366	1.1122
4.367	1.275057
4.368	0.907987
4.369	0.384503
4.37	0.115423
4.371	0.01725
4.372	-0.144517
4.373	-0.36383
4.374	-0.449665
4.375	-0.310121
4.376	-0.091444
4.377	-0.005044
4.378	-0.083319
4.379	-0.167962
4.38	-0.10866
4.381	0.093925
4.382	0.320276
4.383	0.416386
4.384	0.327939
4.385	0.26597
4.386	0.455394
4.387	0.666983
4.388	0.560392
4.389	0.290093
4.39	0.153907
4.391	0.093777
4.392	-0.076691
4.393	-0.336377
4.394	-0.499178
4.395	-0.457764
4.396	-0.303937
4.397	-0.198462
4.398	-0.183136
4.399	-0.16246
4.4	-0.041498
4.401	0.172758
4.402	0.39831
4.403	0.532946
4.404	0.549543
4.405	0.630471
4.406	0.91377
4.407	1.075853
4.408	0.782924
4.409	0.321902
4.41	0.109002
4.411	0.095051
4.412	0.044141
4.413	-0.076462
4.414	-0.139398
4.415	-0.091197
4.416	-0.024879
4.417	-0.042281
4.418	-0.129712
4.419	-0.177624
4.42	-0.099756
4.421	0.087644
4.422	0.29725
4.423	0.417173
4.424	0.396647
4.425	0.387637
4.426	0.5433
4.427	0.637277
4.428	0.413149
4.429	0.104849
4.43	0.0208
4.431	0.065539
4.432	0.01756
4.433	-0.122046
4.434	-0.19322
4.435	-0.125643
4.436	-0.020543
4.437	-0.004211
4.438	-0.080217
4.439	-0.137471
4.44	-0.081299
4.441	0.075754
4.442	0.24438
4.443	0.304147
4.444	0.192642
4.445	0.062671
4.446	0.112357
4.447	0.203158
4.448	0.111256
4.449	-0.014739
4.45	0.032147
4.451	0.134914
4.452	0.096922
4.453	-0.061092
4.454	-0.16738
4.455	-0.13715
4.456	-0.05457
4.457	-0.034166
4.458	-0.084293
4.459	-0.118703
4.46	-0.067504
4.461	0.058833
4.462	0.204878
4.463	0.299483
4.464	0.309947
4.465	0.361809
4.466	0.558922
4.467	0.648999
4.468	0.393578
4.469	0.064775
4.47	-0.010298
4.471	0.058941
4.472	0.016581
4.473	-0.163745
4.474	-0.30441
4.475	-0.275069
4.476	-0.137081
4.477	-0.037455
4.478	-0.032502
4.479	-0.055325
4.48	-0.026746
4.481	0.059225
4.482	0.150805
4.483	0.163457
4.484	0.053605
4.485	-0.03231
4.486	0.07822
4.487	0.215597
4.488	0.138964
4.489	0.00489
4.49	0.04194
4.491	0.15141
4.492	0.141608
4.493	0.020897
4.494	-0.063472
4.495	-0.041422
4.496	0.01885
4.497	0.03177
4.498	-0.008746
4.499	-0.044544
4.5	-0.027233
4.501	0.039292
4.502	0.116677
4.503	0.139761
4.504	0.073454
4.505	0.049057
4.506	0.199953
4.507	0.325681
4.508	0.196709
4.509	0.006217
4.51	0.007205
4.511	0.099632
4.512	0.070186
4.513	-0.098082
4.514	-0.25907
4.515	-0.298435
4.516	-0.226696
4.517	-0.123982
4.518	-0.050197
4.519	-0.004259
4.52	0.042792
4.521	0.09953
4.522	0.147022
4.523	0.131528
4.524	0.027654
4.525	-0.013575
4.526	0.156476
4.527	0.325054
4.528	0.23328
4.529	0.058403
4.53	0.061683
4.531	0.159537
4.532	0.144934
4.533	-0.008451
4.534	-0.170283
4.535	-0.227696
4.536	-0.174553
4.537	-0.078417
4.538	-0.004121
4.539	0.037246
4.54	0.069424
4.541	0.110653
4.542	0.171004
4.543	0.236074
4.544	0.294095
4.545	0.446309
4.546	0.731898
4.547	0.835044
4.548	0.512981
4.549	0.097447
4.55	-0.010827
4.551	0.11141
4.552	0.176141
4.553	0.072056
4.554	-0.10706
4.555	-0.219764
4.556	-0.205948
4.557	-0.111678
4.558	-0.022142
4.559	0.025273
4.56	0.049249
4.561	0.077713
4.562	0.121439
4.563	0.137615
4.564	0.073149
4.565	0.050902
4.566	0.24564
4.567	0.475522
4.568	0.432413
4.569	0.217303
4.57	0.091993
4.571	0.043579
4.572	-0.052521
4.573	-0.160468
4.574	-0.150449
4.575	-0.019301
4.576	0.080824
4.577	0.035329
4.578	-0.102804
4.579	-0.187731
4.58	-0.132858
4.581	0.036001
4.582	0.22939
4.583	0.322703
4.584	0.246802
4.585	0.167559
4.586	0.297793
4.587	0.46447
4.588	0.370585
4.589	0.137926
4.59	0.033526
4.591	0.024081
4.592	-0.048125
4.593	-0.164334
4.594	-0.171838
4.595	-0.034699
4.596	0.090051
4.597	0.0619
4.598	-0.073051
4.599	-0.162543
4.6	-0.122859
4.601	0.010956
4.602	0.147562
4.603	0.172198
4.604	0.040765
4.605	-0.046728
4.606	0.133486
4.607	0.376716
4.608	0.343857
4.609	0.141256
4.61	0.043312
4.611	0.029677
4.612	-0.046081
4.613	-0.163775
4.614	-0.183468
4.615	-0.074705
4.616	0.029496
4.617	0.016916
4.618	-0.071527
4.619	-0.117581
4.62	-0.072423
4.621	0.014459
4.622	0.066449
4.623	-0.006319
4.624	-0.266379
4.625	-0.591115
4.626	-0.741418
4.627	-0.680323
4.628	-0.547474
4.629	-0.371973
4.63	-0.12437
4.631	0.099728
4.632	0.175735
4.633	0.120602
4.634	0.065577
4.635	0.09247
4.636	0.155007
4.637	0.163892
4.638	0.099041
4.639	0.015585
4.64	-0.036469
4.641	-0.051125
4.642	-0.040717
4.643	-0.050782
4.644	-0.126137
4.645	-0.163848
4.646	-0.035446
4.647	0.096236
4.648	0.014834
4.649	-0.128059
4.65	-0.091563
4.651	0.065953
4.652	0.154219
4.653	0.131588
4.654	0.101287
4.655	0.134597
4.656	0.185765
4.657	0.178296
4.658	0.107096
4.659	0.032105
4.66	-0.004735
4.661	-0.011446
4.662	-0.014095
4.663	-0.077131
4.664	-0.275973
4.665	-0.531918
4.666	-0.651832
4.667	-0.608777
4.668	-0.512608
4.669	-0.363529
4.67	-0.129965
4.671	0.092583
4.672	0.199707
4.673	0.218122
4.674	0.235415
4.675	0.266158
4.676	0.259568
4.677	0.191947
4.678	0.095037
4.679	0.017371
4.68	-0.026972
4.681	-0.054967
4.682	-0.071879
4.683	-0.100501
4.684	-0.186479
4.685	-0.272638
4.686	-0.250721
4.687	-0.200559
4.688	-0.250602
4.689	-0.289282
4.69	-0.171087
4.691	0.021237
4.692	0.134708
4.693	0.156505
4.694	0.173573
4.695	0.220009
4.696	0.245519
4.697	0.205748
4.698	0.118648
4.699	0.03397
4.7	-0.027026
4.701	-0.074087
4.702	-0.114106
4.703	-0.189933
4.704	-0.386296
4.705	-0.676782
4.706	-0.887187
4.707	-0.907127
4.708	-0.765148
4.709	-0.50448
4.71	-0.184082
4.711	0.069093
4.712	0.155205
4.713	0.109092
4.714	0.053941
4.715	0.064865
4.716	0.116122
4.717	0.145335
4.718	0.127551
4.719	0.080158
4.72	0.016898
4.721	-0.059278
4.722	-0.126504
4.723	-0.180488
4.724	-0.248138
4.725	-0.276615
4.726	-0.191062
4.727	-0.110115
4.728	-0.170757
4.729	-0.239708
4.73	-0.145308
4.731	0.039961
4.732	0.146434
4.733	0.136847
4.734	0.107728
4.735	0.135571
4.736	0.191408
4.737	0.206217
4.738	0.159387
4.739	0.08119
4.74	-0.001374
4.741	-0.079249
4.742	-0.141615
4.743	-0.21939
4.744	-0.390088
4.745	-0.630471
4.746	-0.793472
4.747	-0.802139
4.748	-0.687705
4.749	-0.472352
4.75	-0.196882
4.751	0.024395
4.752	0.104218
4.753	0.082098
4.754	0.064405
4.755	0.100723
4.756	0.158498
4.757	0.185703
4.758	0.162647
4.759	0.102488
4.76	0.01954
4.761	-0.07256
4.762	-0.134674
4.763	-0.139366
4.764	-0.091667
4.765	0.052583
4.766	0.285759
4.767	0.36452
4.768	0.129962
4.769	-0.151438
4.77	-0.174916
4.771	-0.002527
4.772	0.128007
4.773	0.106213
4.774	-0.003103
4.775	-0.08218
4.776	-0.093343
4.777	-0.094802
4.778	-0.130321
4.779	-0.157432
4.78	-0.117524
4.781	-0.015185
4.782	0.079207
4.783	0.043745
4.784	-0.180225
4.785	-0.400965
4.786	-0.351542
4.787	-0.112973
4.788	0.025409
4.789	0.038942
4.79	0.087135
4.791	0.18318
4.792	0.216748
4.793	0.133187
4.794	-0.006187
4.795	-0.086294
4.796	-0.049491
4.797	0.052003
4.798	0.122357
4.799	0.116283
4.8	0.047167
4.801	-0.040421
4.802	-0.075727
4.803	-0.018414
4.804	0.101638
4.805	0.273039
4.806	0.465713
4.807	0.489281
4.808	0.242853
4.809	-0.03149
4.81	-0.100793
4.811	-0.040731
4.812	-0.009138
4.813	-0.009002
4.814	0.047323
4.815	0.159949
4.816	0.217044
4.817	0.139657
4.818	-0.01906
4.819	-0.13379
4.82	-0.133706
4.821	-0.04204
4.822	0.064087
4.823	0.067231
4.824	-0.104384
4.825	-0.305623
4.826	-0.310831
4.827	-0.177049
4.828	-0.117018
4.829	-0.111229
4.83	-0.036246
4.831	0.056429
4.832	0.046803
4.833	-0.057015
4.834	-0.139693
4.835	-0.134067
4.836	-0.086879
4.837	-0.072109
4.838	-0.094913
4.839	-0.100825
4.84	-0.055778
4.841	0.0248
4.842	0.101834
4.843	0.106702
4.844	0.004213
4.845	-0.064162
4.846	0.058502
4.847	0.207933
4.848	0.143554
4.849	-0.013775
4.85	-0.039611
4.851	0.022467
4.852	0.022704
4.853	-0.041622
4.854	-0.059625
4.855	0.00743
4.856	0.072318
4.857	0.052828
4.858	-0.026358
4.859	-0.08195
4.86	-0.072909
4.861	-0.019192
4.862	0.032116
4.863	0.001578
4.864	-0.160371
4.865	-0.324171
4.866	-0.304218
4.867	-0.17801
4.868	-0.138408
4.869	-0.136376
4.87	-0.045607
4.871	0.066831
4.872	0.075016
4.873	-0.00229
4.874	-0.041306
4.875	0.009822
4.876	0.075123
4.877	0.07078
4.878	0.006778
4.879	-0.048466
4.88	-0.057052
4.881	-0.031113
4.882	-0.007939
4.883	-0.058648
4.884	-0.224398
4.885	-0.370761
4.886	-0.320679
4.887	-0.169953
4.888	-0.120291
4.889	-0.11927
4.89	-0.03704
4.891	0.060437
4.892	0.049693
4.893	-0.048084
4.894	-0.107487
4.895	-0.065433
4.896	0.019197
4.897	0.057286
4.898	0.028134
4.899	-0.023047
4.9	-0.055176
4.901	-0.060058
4.902	-0.044276
4.903	-0.035061
4.904	-0.029573
4.905	0.105671
4.906	0.428591
4.907	0.630517
4.908	0.437883
4.909	0.094523
4.91	-0.051961
4.911	-0.026446
4.912	-0.01839
4.913	-0.072119
4.914	-0.101176
4.915	-0.053233
4.916	0.025965
4.917	0.06245
4.918	0.035022
4.919	-0.01706
4.92	-0.0491
4.921	-0.046085
4.922	-0.022154
4.923	-0.037508
4.924	-0.141339
4.925	-0.232431
4.926	-0.175281
4.927	-0.072722
4.928	-0.089294
4.929	-0.134594
4.93	-0.067312
4.931	0.040011
4.932	0.047796
4.933	-0.046842
4.934	-0.133399
4.935	-0.126438
4.936	-0.043989
4.937	0.029078
4.938	0.036666
4.939	-0.002491
4.94	-0.040564
4.941	-0.045822
4.942	-0.002684
4.943	0.07205
4.944	0.159834
4.945	0.335886
4.946	0.615288
4.947	0.715015
4.948	0.425088
4.949	0.030377
4.95	-0.118088
4.951	-0.062719
4.952	-0.013374
4.953	-0.036818
4.954	-0.063923
4.955	-0.031618
4.956	0.039126
4.957	0.077673
4.958	0.049554
4.959	-0.010042
4.96	-0.048159
4.961	-0.041349
4.962	0.000537
4.963	0.017028
4.964	-0.05584
4.965	-0.147449
4.966	-0.136858
4.967	-0.102016
4.968	-0.167416
4.969	-0.216724
4.97	-0.104851
4.971	0.080348
4.972	0.17483
4.973	0.148608
4.974	0.088675
4.975	0.068843
4.976	0.081323
4.977	0.076029
4.978	0.031414
4.979	-0.024471
4.98	-0.054979
4.981	-0.045445
4.982	-0.001065
4.983	0.027632
4.984	-0.023503
4.985	-0.102458
4.986	-0.109986
4.987	-0.119467
4.988	-0.222029
4.989	-0.273917
4.99	-0.134746
4.991	0.083272
4.992	0.195046
4.993	0.16365
4.994	0.082919
4.995	0.037936
4.996	0.033742
4.997	0.032843
4.998	0.012172
4.999	-0.018352
5.0	-0.040065
5.001	-0.041346
5.002	-0.0139
5.003	0.011382
5.004	-0.02078
5.005	-0.073763
5.006	-0.078553
5.007	-0.119121
5.008	-0.261344
5.009	-0.331572
5.01	-0.187902
5.011	0.04067
5.012	0.159845
5.013	0.134636
5.014	0.060861
5.015	0.024744
5.016	0.035161
5.017	0.053455
5.018	0.046497
5.019	0.013272
5.02	-0.031435
5.021	-0.070352
5.022	-0.083265
5.023	-0.087164
5.024	-0.127942
5.025	-0.171568
5.026	-0.158813
5.027	-0.179405
5.028	-0.298033
5.029	-0.33811
5.03	-0.160954
5.031	0.088957
5.032	0.190757
5.033	0.089062
5.034	-0.100204
5.035	-0.217413
5.036	-0.186163
5.037	-0.057712
5.038	0.05856
5.039	0.09486
5.04	0.046416
5.041	-0.047357
5.042	-0.120039
5.043	-0.129887
5.044	-0.063348
5.045	0.143485
5.046	0.470229
5.047	0.611356
5.048	0.365131
5.049	0.026973
5.05	-0.082659
5.051	-0.051255
5.052	-0.079908
5.053	-0.171336
5.054	-0.209913
5.055	-0.159967
5.056	-0.099888
5.057	-0.100166
5.058	-0.135496
5.059	-0.125983
5.06	-0.033234
5.061	0.113107
5.062	0.236208
5.063	0.215194
5.064	-0.003593
5.065	-0.235339
5.066	-0.23607
5.067	-0.081273
5.068	-0.0094
5.069	-0.011507
5.07	0.039135
5.071	0.108885
5.072	0.113898
5.073	0.089195
5.074	0.115967
5.075	0.177866
5.076	0.18238
5.077	0.088299
5.078	-0.046013
5.079	-0.127578
5.08	-0.115764
5.081	-0.032166
5.082	0.06359
5.083	0.064936
5.084	-0.093782
5.085	-0.272276
5.086	-0.26509
5.087	-0.142807
5.088	-0.109997
5.089	-0.134544
5.09	-0.094898
5.091	-0.04115
5.092	-0.058323
5.093	-0.095981
5.094	-0.058927
5.095	0.04033
5.096	0.10274
5.097	0.071806
5.098	-0.012867
5.099	-0.07459
5.1	-0.077248
5.101	-0.031866
5.102	0.013704
5.103	-0.048306
5.104	-0.294513
5.105	-0.58555
5.106	-0.673806
5.107	-0.545399
5.108	-0.373694
5.109	-0.209644
5.11	-0.028459
5.111	0.093309
5.112	0.07506
5.113	-0.019431
5.114	-0.050095
5.115	0.020162
5.116	0.097167
5.117	0.096036
5.118	0.03215
5.119	-0.030717
5.12	-0.060068
5.121	-0.058453
5.122	-0.051045
5.123	-0.104507
5.124	-0.237329
5.125	-0.274075
5.126	-0.059798
5.127	0.185291
5.128	0.169958
5.129	0.011685
5.13	-0.039727
5.131	0.001055
5.132	0.013797
5.133	0.014163
5.134	0.087266
5.135	0.216184
5.136	0.289193
5.137	0.239689
5.138	0.107304
5.139	-0.02374
5.14	-0.102275
5.141	-0.119195
5.142	-0.099669
5.143	-0.125838
5.144	-0.253268
5.145	-0.354195
5.146	-0.27006
5.147	-0.120185
5.148	-0.104492
5.149	-0.144152
5.15	-0.081756
5.151	0.027318
5.152	0.052169
5.153	-0.003991
5.154	-0.040499
5.155	-0.008211
5.156	0.049385
5.157	0.070605
5.158	0.041024
5.159	-0.011139
5.16	-0.053751
5.161	-0.063065
5.162	-0.035432
5.163	-0.023997
5.164	-0.068537
5.165	-0.052779
5.166	0.128945
5.167	0.274435
5.168	0.16034
5.169	-0.042716
5.17	-0.078987
5.171	-0.000426
5.172	0.011733
5.173	-0.074922
5.174	-0.149758
5.175	-0.118815
5.176	-0.008236
5.177	0.079534
5.178	0.085202
5.179	0.035409
5.18	-0.014802
5.181	-0.026222
5.182	0.008088
5.183	0.032573
5.184	-0.000829
5.185	0.010087
5.186	0.163617
5.187	0.268758
5.188	0.125316
5.189	-0.077638
5.19	-0.082912
5.191	0.042002
5.192	0.091857
5.193	0.010663
5.194	-0.099729
5.195	-0.127167
5.196	-0.062316
5.197	0.016431
5.198	0.044051
5.199	0.025011
5.2	-0.000515
5.201	0.005973
5.202	0.055351
5.203	0.083004
5.204	0.006875
5.205	-0.108538
5.206	-0.134322
5.207	-0.134684
5.208	-0.218093
5.209	-0.252755
5.21	-0.089186
5.211	0.168002
5.212	0.324665
5.213	0.327427
5.214	0.254817
5.215	0.18894
5.216	0.149517
5.217	0.111642
5.218	0.051741
5.219	-0.022047
5.22	-0.083103
5.221	-0.100418
5.222	-0.052964
5.223	0.018957
5.224	0.050442
5.225	0.087678
5.226	0.184962
5.227	0.178442
5.228	-0.051782
5.229	-0.262359
5.23	-0.206797
5.231	0.010488
5.232	0.165435
5.233	0.194173
5.234	0.166394
5.235	0.14415
5.236	0.132992
5.237	0.111939
5.238	0.065275
5.239	-0.002113
5.24	-0.071769
5.241	-0.112986
5.242	-0.097579
5.243	-0.06047
5.244	-0.069903
5.245	-0.081279
5.246	0.001318
5.247	0.089854
5.248	0.046115
5.249	-0.038061
5.25	-0.026947
5.251	0.01337
5.252	-0.027258
5.253	-0.097817
5.254	-0.065242
5.255	0.072008
5.256	0.163196
5.257	0.102847
5.258	-0.045011
5.259	-0.142439
5.26	-0.124336
5.261	-0.021355
5.262	0.066142
5.263	-0.014067
5.264	-0.308486
5.265	-0.575672
5.266	-0.525777
5.267	-0.256896
5.268	-0.075213
5.269	-0.01899
5.27	0.029714
5.271	0.044667
5.272	-0.037527
5.273	-0.134905
5.274	-0.110209
5.275	0.028448
5.276	0.1296
5.277	0.094843
5.278	-0.018004
5.279	-0.094222
5.28	-0.08444
5.281	-0.007856
5.282	0.069905
5.283	0.035564
5.284	-0.143904
5.285	-0.268883
5.286	-0.160111
5.287	-0.025153
5.288	-0.115174
5.289	-0.244978
5.29	-0.144703
5.291	0.102724
5.292	0.261687
5.293	0.249837
5.294	0.144891
5.295	0.055888
5.296	0.044368
5.297	0.097827
5.298	0.14481
5.299	0.117988
5.3	0.008278
5.301	-0.12438
5.302	-0.199489
5.303	-0.209225
5.304	-0.199974
5.305	-0.116391
5.306	0.115093
5.307	0.309377
5.308	0.24373
5.309	0.055805
5.31	-0.018712
5.311	-0.015164
5.312	-0.073352
5.313	-0.181982
5.314	-0.221551
5.315	-0.142855
5.316	-0.022943
5.317	0.035601
5.318	0.012997
5.319	-0.034667
5.32	-0.052086
5.321	-0.016464
5.322	0.048758
5.323	0.054282
5.324	-0.041033
5.325	-0.074749
5.326	0.103426
5.327	0.288404
5.328	0.217195
5.329	0.027503
5.33	-0.024141
5.331	0.037935
5.332	0.066112
5.333	0.047561
5.334	0.069454
5.335	0.154036
5.336	0.218909
5.337	0.184717
5.338	0.067615
5.339	-0.051607
5.34	-0.110535
5.341	-0.08727
5.342	-0.004599
5.343	0.047945
5.344	0.012154
5.345	0.011906
5.346	0.169447
5.347	0.293233
5.348	0.159399
5.349	-0.064581
5.35	-0.118025
5.351	-0.038882
5.352	0.012125
5.353	0.010039
5.354	0.026297
5.355	0.081962
5.356	0.120609
5.357	0.091505
5.358	0.010097
5.359	-0.067345
5.36	-0.097506
5.361	-0.061675
5.362	0.017166
5.363	0.037611
5.364	-0.080838
5.365	-0.222408
5.366	-0.212932
5.367	-0.13351
5.368	-0.158943
5.369	-0.212425
5.37	-0.151045
5.371	-0.03764
5.372	0.012317
5.373	0.016021
5.374	0.045171
5.375	0.090382
5.376	0.087582
5.377	0.026918
5.378	-0.037127
5.379	-0.056155
5.38	-0.022426
5.381	0.047254
5.382	0.0901
5.383	-0.04724
5.384	-0.480448
5.385	-1.057364
5.386	-1.422883
5.387	-1.36491
5.388	-0.973553
5.389	-0.488811
5.39	-0.133872
5.391	-0.037396
5.392	-0.166727
5.393	-0.358583
5.394	-0.469475
5.395	-0.465175
5.396	-0.377368
5.397	-0.236184
5.398	-0.060764
5.399	0.119104
5.4	0.265274
5.401	0.355416
5.402	0.356055
5.403	0.171151
5.404	-0.24085
5.405	-0.671307
5.406	-0.813716
5.407	-0.641651
5.408	-0.363949
5.409	-0.10385
5.41	0.086132
5.411	0.109513
5.412	-0.054335
5.413	-0.288112
5.414	-0.458241
5.415	-0.505112
5.416	-0.429361
5.417	-0.258819
5.418	-0.037413
5.419	0.177118
5.42	0.330693
5.421	0.405791
5.422	0.404931
5.423	0.302223
5.424	0.124394
5.425	0.071807
5.426	0.278535
5.427	0.481472
5.428	0.398024
5.429	0.217021
5.43	0.218171
5.431	0.326787
5.432	0.336909
5.433	0.213095
5.434	0.073147
5.435	0.025562
5.436	0.065958
5.437	0.108573
5.438	0.096387
5.439	0.044854
5.44	-0.004708
5.441	0.00107
5.442	0.138508
5.443	0.459276
5.444	0.952356
5.445	1.523211
5.446	1.862836
5.447	1.552257
5.448	0.6724
5.449	-0.08811
5.45	-0.263084
5.451	-0.039627
5.452	0.197276
5.453	0.312235
5.454	0.404395
5.455	0.548812
5.456	0.651589
5.457	0.562166
5.458	0.26828
5.459	-0.081633
5.46	-0.328954
5.461	-0.407556
5.462	-0.346842
5.463	-0.259125
5.464	-0.254866
5.465	-0.305569
5.466	-0.32484
5.467	-0.36635
5.468	-0.471782
5.469	-0.479579
5.47	-0.287579
5.471	-0.052704
5.472	0.036816
5.473	-0.020696
5.474	-0.101501
5.475	-0.121164
5.476	-0.093687
5.477	-0.077945
5.478	-0.100958
5.479	-0.133094
5.48	-0.128582
5.481	-0.05867
5.482	0.070622
5.483	0.195142
5.484	0.259036
5.485	0.332256
5.486	0.462735
5.487	0.444004
5.488	0.144879
5.489	-0.140596
5.49	-0.133157
5.491	0.033793
5.492	0.096865
5.493	-0.003924
5.494	-0.139872
5.495	-0.181304
5.496	-0.122291
5.497	-0.05239
5.498	-0.040959
5.499	-0.075176
5.5	-0.100681
5.501	-0.072829
5.502	0.010243
5.503	0.084299
5.504	0.100578
5.505	0.15331
5.506	0.312884
5.507	0.36352
5.508	0.136258
5.509	-0.110854
5.51	-0.113307
5.511	0.006257
5.512	0.017487
5.513	-0.106514
5.514	-0.232566
5.515	-0.2503
5.516	-0.163599
5.517	-0.052912
5.518	0.011316
5.519	0.017643
5.52	-0.000382
5.521	0.002433
5.522	0.038657
5.523	0.053515
5.524	0.015341
5.525	0.049073
5.526	0.241474
5.527	0.355813
5.528	0.186805
5.529	-0.029225
5.53	-0.030394
5.531	0.068277
5.532	0.047549
5.533	-0.109889
5.534	-0.263312
5.535	-0.29942
5.536	-0.238103
5.537	-0.176585
5.538	-0.154926
5.539	-0.122903
5.54	-0.024861
5.541	0.132808
5.542	0.250918
5.543	0.171915
5.544	-0.099864
5.545	-0.23467
5.546	0.034814
5.547	0.422172
5.548	0.496737
5.549	0.330431
5.55	0.203016
5.551	0.122169
5.552	-0.011646
5.553	-0.144951
5.554	-0.152362
5.555	-0.032643
5.556	0.078238
5.557	0.07201
5.558	-0.019065
5.559	-0.082912
5.56	-0.044155
5.561	0.094753
5.562	0.243028
5.563	0.246718
5.564	0.080516
5.565	0.004653
5.566	0.231211
5.567	0.495609
5.568	0.44805
5.569	0.227947
5.57	0.126277
5.571	0.111955
5.572	0.028857
5.573	-0.108548
5.574	-0.166451
5.575	-0.090181
5.576	0.025205
5.577	0.053657
5.578	-0.017002
5.579	-0.091356
5.58	-0.076184
5.581	0.056972
5.582	0.245481
5.583	0.341176
5.584	0.275717
5.585	0.231417
5.586	0.381579
5.587	0.507987
5.588	0.346183
5.589	0.088247
5.59	0.023432
5.591	0.08769
5.592	0.089352
5.593	0.019736
5.594	-0.000934
5.595	0.068606
5.596	0.133821
5.597	0.09554
5.598	-0.030011
5.599	-0.139032
5.6	-0.142334
5.601	-0.016486
5.602	0.172829
5.603	0.274522
5.604	0.216374
5.605	0.175878
5.606	0.320162
5.607	0.43075
5.608	0.256897
5.609	0.002886
5.61	-0.05054
5.611	0.019238
5.612	0.022643
5.613	-0.047308
5.614	-0.084002
5.615	-0.047669
5.616	-0.000139
5.617	-0.010425
5.618	-0.07379
5.619	-0.121072
5.62	-0.087073
5.621	0.042187
5.622	0.192563
5.623	0.201324
5.624	-0.003334
5.625	-0.213254
5.626	-0.18725
5.627	-0.049403
5.628	-0.038233
5.629	-0.065598
5.63	0.029723
5.631	0.150601
5.632	0.146047
5.633	0.047401
5.634	-0.018405
5.635	-0.014518
5.636	-0.005964
5.637	-0.039393
5.638	-0.089082
5.639	-0.101114
5.64	-0.043875
5.641	0.07846
5.642	0.197792
5.643	0.178829
5.644	-0.009996
5.645	-0.130983
5.646	0.02963
5.647	0.247913
5.648	0.218244
5.649	0.082769
5.65	0.085331
5.651	0.138784
5.652	0.056472
5.653	-0.15171
5.654	-0.325883
5.655	-0.349586
5.656	-0.249351
5.657	-0.130905
5.658	-0.056193
5.659	-0.007526
5.66	0.058348
5.661	0.162912
5.662	0.261881
5.663	0.238321
5.664	0.064382
5.665	-0.040374
5.666	0.1153
5.667	0.307959
5.668	0.252579
5.669	0.103833
5.67	0.102162
5.671	0.156255
5.672	0.082466
5.673	-0.10425
5.674	-0.248631
5.675	-0.251845
5.676	-0.154271
5.677	-0.058224
5.678	-0.015524
5.679	-0.00366
5.68	0.024267
5.681	0.09981
5.682	0.201932
5.683	0.249366
5.684	0.233652
5.685	0.316679
5.686	0.549658
5.687	0.635252
5.688	0.385258
5.689	0.088537
5.69	0.024292
5.691	0.081857
5.692	0.059848
5.693	-0.047222
5.694	-0.124838
5.695	-0.108337
5.696	-0.032004
5.697	0.025493
5.698	0.022228
5.699	-0.014244
5.7	-0.024914
5.701	0.034304
5.702	0.151486
5.703	0.249061
5.704	0.304094
5.705	0.440127
5.706	0.671523
5.707	0.702924
5.708	0.385234
5.709	0.045202
5.71	-0.024573
5.711	0.054031
5.712	0.051534
5.713	-0.058268
5.714	-0.146914
5.715	-0.117966
5.716	-0.005791
5.717	0.074815
5.718	0.05749
5.719	-0.018233
5.72	-0.065129
5.721	-0.01749
5.722	0.123921
5.723	0.279623
5.724	0.399651
5.725	0.562786
5.726	0.76414
5.727	0.735025
5.728	0.363891
5.729	-0.002593
5.73	-0.067412
5.731	0.039923
5.732	0.073139
5.733	-0.013258
5.734	-0.101818
5.735	-0.091821
5.736	-0.004126
5.737	0.059578
5.738	0.038022
5.739	-0.032871
5.74	-0.069896
5.741	-0.010394
5.742	0.130214
5.743	0.235416
5.744	0.21045
5.745	0.144596
5.746	0.16169
5.747	0.147739
5.748	-0.020887
5.749	-0.161883
5.75	-0.097251
5.751	0.045141
5.752	0.067757
5.753	-0.046618
5.754	-0.175952
5.755	-0.207982
5.756	-0.135215
5.757	-0.039498
5.758	0.004369
5.759	-0.00396
5.76	-0.008952
5.761	0.047381
5.762	0.160949
5.763	0.235477
5.764	0.210828
5.765	0.217282
5.766	0.363726
5.767	0.431466
5.768	0.225124
5.769	-0.004855
5.77	0.01881
5.771	0.171243
5.772	0.18939
5.773	0.013878
5.774	-0.206814
5.775	-0.30569
5.776	-0.247144
5.777	-0.115989
5.778	-0.009891
5.779	0.039254
5.78	0.064341
5.781	0.116694
5.782	0.19136
5.783	0.186546
5.784	0.055608
5.785	0.005653
5.786	0.242604
5.787	0.528071
5.788	0.507708
5.789	0.291285
5.79	0.155298
5.791	0.086787
5.792	-0.033354
5.793	-0.169013
5.794	-0.206235
5.795	-0.13908
5.796	-0.077544
5.797	-0.096382
5.798	-0.150952
5.799	-0.146465
5.8	-0.036009
5.801	0.15853
5.802	0.340135
5.803	0.367098
5.804	0.252252
5.805	0.266203
5.806	0.545276
5.807	0.754167
5.808	0.589362
5.809	0.276414
5.81	0.126093
5.811	0.089158
5.812	-0.000181
5.813	-0.13443
5.814	-0.197061
5.815	-0.151431
5.816	-0.082015
5.817	-0.073917
5.818	-0.110805
5.819	-0.113603
5.82	-0.033709
5.821	0.121819
5.822	0.277662
5.823	0.305128
5.824	0.196677
5.825	0.169764
5.826	0.347551
5.827	0.479659
5.828	0.344829
5.829	0.131207
5.83	0.063559
5.831	0.062848
5.832	-0.024678
5.833	-0.17831
5.834	-0.266829
5.835	-0.227059
5.836	-0.126327
5.837	-0.069262
5.838	-0.076489
5.839	-0.087354
5.84	-0.045141
5.841	0.068093
5.842	0.208199
5.843	0.266463
5.844	0.221462
5.845	0.248322
5.846	0.4389
5.847	0.545903
5.848	0.36894
5.849	0.111863
5.85	0.009226
5.851	-0.006503
5.852	-0.079607
5.853	-0.193817
5.854	-0.241724
5.855	-0.186352
5.856	-0.0951
5.857	-0.049408
5.858	-0.058572
5.859	-0.074022
5.86	-0.052125
5.861	0.024784
5.862	0.121814
5.863	0.144895
5.864	0.09208
5.865	0.154564
5.866	0.413996
5.867	0.584141
5.868	0.431108
5.869	0.158279
5.87	0.027544
5.871	0.00188
5.872	-0.053107
5.873	-0.141772
5.874	-0.193047
5.875	-0.180941
5.876	-0.13622
5.877	-0.096656
5.878	-0.073566
5.879	-0.056285
5.88	-0.027685
5.881	0.036031
5.882	0.1286
5.883	0.183666
5.884	0.198766
5.885	0.326528
5.886	0.601817
5.887	0.726592
5.888	0.494177
5.889	0.146263
5.89	-0.027404
5.891	-0.054738
5.892	-0.076445
5.893	-0.105694
5.894	-0.079412
5.895	0.001572
5.896	0.061817
5.897	0.048544
5.898	-0.016361
5.899	-0.084707
5.9	-0.132488
5.901	-0.151698
5.902	-0.173685
5.903	-0.309834
5.904	-0.638077
5.905	-1.037586
5.906	-1.269179
5.907	-1.20756
5.908	-0.901824
5.909	-0.474105
5.91	-0.058398
5.911	0.214391
5.912	0.279819
5.913	0.202411
5.914	0.119692
5.915	0.113138
5.916	0.156545
5.917	0.178482
5.918	0.144255
5.919	0.064075
5.92	-0.036108
5.921	-0.115897
5.922	-0.156967
5.923	-0.21806
5.924	-0.344754
5.925	-0.438094
5.926	-0.389374
5.927	-0.287648
5.928	-0.253519
5.929	-0.210956
5.93	-0.061672
5.931	0.117818
5.932	0.201964
5.933	0.18286
5.934	0.144955
5.935	0.148416
5.936	0.179568
5.937	0.189628
5.938	0.149312
5.939	0.058826
5.94	-0.061026
5.941	-0.158228
5.942	-0.186288
5.943	-0.173029
5.944	-0.158494
5.945	-0.081662
5.946	0.086938
5.947	0.167863
5.948	0.03057
5.949	-0.13434
5.95	-0.108026
5.951	0.049205
5.952	0.151564
5.953	0.124186
5.954	0.035268
5.955	-0.004719
5.956	0.041701
5.957	0.113869
5.958	0.134008
5.959	0.074455
5.96	-0.039208
5.961	-0.136747
5.962	-0.160986
5.963	-0.15538
5.964	-0.211256
5.965	-0.32396
5.966	-0.414314
5.967	-0.46022
5.968	-0.466004
5.969	-0.372761
5.97	-0.153642
5.971	0.088337
5.972	0.220569
5.973	0.211281
5.974	0.131816
5.975	0.067418
5.976	0.031022
5.977	-0.020364
5.978	-0.090229
5.979	-0.130538
5.98	-0.109366
5.981	-0.028681
5.982	0.054268
5.983	0.007176
5.984	-0.224693
5.985	-0.464969
5.986	-0.495498
5.987	-0.352278
5.988	-0.224318
5.989	-0.150824
5.99	-0.045259
5.991	0.091938
5.992	0.163924
5.993	0.11501
5.994	-0.000823
5.995	-0.074476
5.996	-0.047112
5.997	0.044356
5.998	0.116329
5.999	0.106168
6.0	0.010772
6.001	-0.094827
6.002	-0.120056
6.003	-0.081355
6.004	-0.082267
6.005	-0.156097
6.006	-0.238896
6.007	-0.288004
6.008	-0.296803
6.009	-0.236406
6.01	-0.105945
6.011	0.033529
6.012	0.149218
6.013	0.280245
6.014	0.432623
6.015	0.501999
6.016	0.390865
6.017	0.151801
6.018	-0.063372
6.019	-0.160771
6.02	-0.154048
6.021	-0.090778
6.022	-0.039904
6.023	-0.128978
6.024	-0.415316
6.025	-0.737604
6.026	-0.863732
6.027	-0.746399
6.028	-0.512401
6.029	-0.277652
6.03	-0.091613
6.031	0.01032
6.032	0.023548
6.033	0.013386
6.034	0.049068
6.035	0.118705
6.036	0.169386
6.037	0.189411
6.038	0.191339
6.039	0.151578
6.04	0.038248
6.041	-0.107223
6.042	-0.202264
6.043	-0.247485
6.044	-0.300133
6.045	-0.308842
6.046	-0.177176
6.047	-0.004549
6.048	0.035126
6.049	-0.012909
6.05	-0.008773
6.051	0.042943
6.052	0.067396
6.053	0.063393
6.054	0.073358
6.055	0.092979
6.056	0.079598
6.057	0.026147
6.058	-0.021458
6.059	-0.031337
6.06	-0.021509
6.061	-0.011208
6.062	-0.030822
6.063	-0.172485
6.064	-0.476421
6.065	-0.790015
6.066	-0.89662
6.067	-0.752169
6.068	-0.483522
6.069	-0.218237
6.07	-0.019898
6.071	0.075758
6.072	0.076872
6.073	0.061563
6.074	0.098722
6.075	0.160183
6.076	0.168911
6.077	0.107327
6.078	0.029821
6.079	-0.023509
6.08	-0.064787
6.081	-0.099746
6.082	-0.122125
6.083	-0.158698
6.084	-0.18891
6.085	-0.092165
6.086	0.136431
6.087	0.271938
6.088	0.178313
6.089	0.011092
6.09	-0.056588
6.091	-0.051012
6.092	-0.066629
6.093	-0.112846
6.094	-0.137919
6.095	-0.112224
6.096	-0.054847
6.097	-0.004344
6.098	0.020593
6.099	0.015812
6.1	-0.022028
6.101	-0.06661
6.102	-0.083149
6.103	-0.086965
6.104	-0.073163
6.105	0.044761
6.106	0.252639
6.107	0.341613
6.108	0.205151
6.109	0.013848
6.11	-0.05845
6.111	-0.040658
6.112	-0.027935
6.113	-0.029025
6.114	-0.00034
6.115	0.060018
6.116	0.103671
6.117	0.095299
6.118	0.049284
6.119	-0.007372
6.12	-0.06414
6.121	-0.095149
6.122	-0.080227
6.123	-0.074421
6.124	-0.140908
6.125	-0.226554
6.126	-0.238811
6.127	-0.20302
6.128	-0.193644
6.129	-0.185812
6.13	-0.122622
6.131	-0.026583
6.132	0.059698
6.133	0.144395
6.134	0.236473
6.135	0.293373
6.136	0.264953
6.137	0.159996
6.138	0.038374
6.139	-0.056968
6.14	-0.122741
6.141	-0.14725
6.142	-0.122084
6.143	-0.107713
6.144	-0.167149
6.145	-0.246884
6.146	-0.256452
6.147	-0.221915
6.148	-0.213007
6.149	-0.198209
6.15	-0.123413
6.151	-0.027159
6.152	0.032033
6.153	0.067963
6.154	0.121227
6.155	0.176234
6.156	0.177181
6.157	0.108128
6.158	0.011977
6.159	-0.070781
6.16	-0.133611
6.161	-0.15945
6.162	-0.12166
6.163	-0.041209
6.164	0.061376
6.165	0.219765
6.166	0.383336
6.167	0.368117
6.168	0.133123
6.169	-0.100947
6.17	-0.153188
6.171	-0.072875
6.172	0.015748
6.173	0.068365
6.174	0.101593
6.175	0.120393
6.176	0.106738
6.177	0.056489
6.178	-0.004196
6.179	-0.051275
6.18	-0.086393
6.181	-0.104115
6.182	-0.098592
6.183	-0.114853
6.184	-0.177887
6.185	-0.192162
6.186	-0.08216
6.187	0.026054
6.188	-0.005682
6.189	-0.08863
6.19	-0.085899
6.191	-0.025705
6.192	-0.00101
6.193	-0.024807
6.194	-0.04293
6.195	-0.023551
6.196	0.007575
6.197	0.016088
6.198	0.006053
6.199	-0.006185
6.2	-0.024497
6.201	-0.040055
6.202	-0.036163
6.203	-0.052351
6.204	-0.139209
6.205	-0.249266
6.206	-0.293399
6.207	-0.279525
6.208	-0.260017
6.209	-0.214297
6.21	-0.118995
6.211	-0.028462
6.212	-0.002952
6.213	-0.038098
6.214	-0.085532
6.215	-0.101408
6.216	-0.076608
6.217	-0.0322
6.218	0.011998
6.219	0.037947
6.22	0.022321
6.221	-0.019999
6.222	-0.039759
6.223	-0.027978
6.224	-0.005916
6.225	0.028926
6.226	0.049611
6.227	-0.011906
6.228	-0.13003
6.229	-0.177152
6.23	-0.100622
6.231	0.019552
6.232	0.08795
6.233	0.083659
6.234	0.045041
6.235	0.017119
6.236	0.015664
6.237	0.025715
6.238	0.030917
6.239	0.017748
6.24	-0.028892
6.241	-0.086076
6.242	-0.10621
6.243	-0.108941
6.244	-0.176704
6.245	-0.333805
6.246	-0.501087
6.247	-0.577878
6.248	-0.522893
6.249	-0.366394
6.25	-0.183029
6.251	-0.049865
6.252	-0.000541
6.253	-0.009285
6.254	-0.02636
6.255	-0.021021
6.256	0.007032
6.257	0.040059
6.258	0.060365
6.259	0.047321
6.26	-0.018267
6.261	-0.113574
6.262	-0.190748
6.263	-0.259103
6.264	-0.366379
6.265	-0.498248
6.266	-0.583447
6.267	-0.575621
6.268	-0.477051
6.269	-0.31946
6.27	-0.150288
6.271	-0.011592
6.272	0.091123
6.273	0.184209
6.274	0.268903
6.275	0.302575
6.276	0.260153
6.277	0.172718
6.278	0.08564
6.279	0.003518
6.28	-0.096286
6.281	-0.198121
6.282	-0.257091
6.283	-0.28622
6.284	-0.347098
6.285	-0.450407
6.286	-0.540561
6.287	-0.559453
6.288	-0.48468
6.289	-0.332158
6.29	-0.151748
6.291	-0.012071
6.292	0.039936
6.293	0.014314
6.294	-0.03186
6.295	-0.040171
6.296	0.003206
6.297	0.064573
6.298	0.100935
6.299	0.080943
6.3	-0.004199
6.301	-0.109662
6.302	-0.168463
6.303	-0.186279
6.304	-0.232529
6.305	-0.336545
6.306	-0.455245
6.307	-0.520394
6.308	-0.485203
6.309	-0.346936
6.31	-0.151177
6.311	0.028586
6.312	0.133906
6.313	0.145379
6.314	0.082951
6.315	0.005772
6.316	-0.020861
6.317	0.016597
6.318	0.071898
6.319	0.081748
6.32	0.017908
6.321	-0.074954
6.322	-0.128911
6.323	-0.16176
6.324	-0.256161
6.325	-0.422067
6.326	-0.561518
6.327	-0.571072
6.328	-0.432283
6.329	-0.207992
6.33	0.006257
6.331	0.122017
6.332	0.10025
6.333	-0.01247
6.334	-0.112983
6.335	-0.140744
6.336	-0.126724
6.337	-0.112579
6.338	-0.080193
6.339	-0.010267
6.34	0.065189
6.341	0.112699
6.342	0.117924
6.343	0.075105
6.344	0.078686
6.345	0.293239
6.346	0.649198
6.347	0.812187
6.348	0.627748
6.349	0.295467
6.35	0.035672
6.351	-0.117181
6.352	-0.190528
6.353	-0.172792
6.354	-0.069933
6.355	0.043442
6.356	0.079641
6.357	0.02862
6.358	-0.035335
6.359	-0.048886
6.36	-0.017229
6.361	0.035691
6.362	0.08144
6.363	0.061785
6.364	-0.015328
6.365	-0.024484
6.366	0.084546
6.367	0.179565
6.368	0.152528
6.369	0.061241
6.37	-0.008671
6.371	-0.056019
6.372	-0.093854
6.373	-0.090889
6.374	-0.026588
6.375	0.054525
6.376	0.078857
6.377	0.026144
6.378	-0.04655
6.379	-0.078999
6.38	-0.063967
6.381	-0.008086
6.382	0.072796
6.383	0.114151
6.384	0.087561
6.385	0.074608
6.386	0.119072
6.387	0.1291
6.388	0.048056
6.389	-0.043685
6.39	-0.076503
6.391	-0.080914
6.392	-0.094028
6.393	-0.090905
6.394	-0.041534
6.395	0.020484
6.396	0.031381
6.397	-0.017953
6.398	-0.070707
6.399	-0.079744
6.4	-0.050697
6.401	0.000819
6.402	0.051903
6.403	0.039907
6.404	-0.041141
6.405	-0.07746
6.406	-0.015493
6.407	0.035289
6.408	0.001087
6.409	-0.044351
6.41	-0.037722
6.411	-0.014607
6.412	-0.01061
6.413	0.002397
6.414	0.049476
6.415	0.088369
6.416	0.062165
6.417	-0.017405
6.418	-0.08138
6.419	-0.086479
6.42	-0.048636
6.421	0.004309
6.422	0.031146
6.423	-0.055906
6.424	-0.279487
6.425	-0.483296
6.426	-0.491947
6.427	-0.338963
6.428	-0.179754
6.429	-0.076216
6.43	-0.016436
6.431	-0.006799
6.432	-0.036691
6.433	-0.05828
6.434	-0.048865
6.435	-0.036629
6.436	-0.049754
6.437	-0.074513
6.438	-0.072554
6.439	-0.03474
6.44	0.006819
6.441	0.036203
6.442	0.058707
6.443	0.060754
6.444	0.068115
6.445	0.148599
6.446	0.24589
6.447	0.212809
6.448	0.070455
6.449	-0.017372
6.45	-0.000301
6.451	0.026795
6.452	-0.015635
6.453	-0.108594
6.454	-0.183782
6.455	-0.200358
6.456	-0.167852
6.457	-0.11586
6.458	-0.057432
6.459	-0.002153
6.46	0.027633
6.461	0.034971
6.462	0.043843
6.463	0.053361
6.464	0.084355
6.465	0.182968
6.466	0.276692
6.467	0.224401
6.468	0.06328
6.469	-0.040462
6.47	-0.045878
6.471	-0.047255
6.472	-0.105512
6.473	-0.178412
6.474	-0.192592
6.475	-0.134575
6.476	-0.056238
6.477	-0.00649
6.478	0.015507
6.479	0.024883
6.48	0.015401
6.481	-0.006958
6.482	-0.021697
6.483	-0.03145
6.484	-0.011933
6.485	0.091321
6.486	0.209182
6.487	0.190975
6.488	0.059228
6.489	-0.025651
6.49	-0.012981
6.491	0.019464
6.492	0.015549
6.493	-0.001784
6.494	0.006536
6.495	0.037837
6.496	0.059871
6.497	0.052441
6.498	0.027078
6.499	2.6e-05
6.5	-0.029086
6.501	-0.048875
6.502	-0.048895
6.503	-0.071557
6.504	-0.15668
6.505	-0.268315
6.506	-0.355739
6.507	-0.390729
6.508	-0.335603
6.509	-0.191518
6.51	-0.038418
6.511	0.033991
6.512	0.003977
6.513	-0.075859
6.514	-0.130405
6.515	-0.11885
6.516	-0.05841
6.517	0.002431
6.518	0.033948
6.519	0.030026
6.52	-0.007237
6.521	-0.04653
6.522	-0.042765
6.523	0.010196
6.524	0.111987
6.525	0.260832
6.526	0.349471
6.527	0.251153
6.528	0.045126
6.529	-0.06845
6.53	-0.030547
6.531	0.062975
6.532	0.125434
6.533	0.152989
6.534	0.170179
6.535	0.172882
6.536	0.142857
6.537	0.084854
6.538	0.024282
6.539	-0.027419
6.54	-0.077514
6.541	-0.111371
6.542	-0.103197
6.543	-0.068364
6.544	-0.025269
6.545	0.01815
6.546	-0.010762
6.547	-0.148597
6.548	-0.263653
6.549	-0.227367
6.55	-0.089455
6.551	0.020934
6.552	0.048164
6.553	0.033669
6.554	0.0395
6.555	0.074894
6.556	0.102913
6.557	0.098389
6.558	0.07092
6.559	0.032063
6.56	-0.019528
6.561	-0.059719
6.562	-0.047069
6.563	0.018506
6.564	0.124263
6.565	0.256441
6.566	0.305915
6.567	0.162487
6.568	-0.059651
6.569	-0.135411
6.57	-0.024778
6.571	0.120491
6.572	0.153389
6.573	0.050595
6.574	-0.095404
6.575	-0.168745
6.576	-0.132041
6.577	-0.037907
6.578	0.048484
6.579	0.102952
6.58	0.134191
6.581	0.160128
6.582	0.152888
6.583	0.042547
6.584	-0.114072
6.585	-0.118267
6.586	0.061157
6.587	0.21195
6.588	0.21106
6.589	0.139807
6.59	0.068745
6.591	-0.018912
6.592	-0.11543
6.593	-0.154019
6.594	-0.103311
6.595	-0.027393
6.596	-0.013062
6.597	-0.063191
6.598	-0.096414
6.599	-0.055321
6.6	0.033006
6.601	0.115268
6.602	0.139187
6.603	0.054818
6.604	-0.070893
6.605	-0.0636
6.606	0.087002
6.607	0.189271
6.608	0.161452
6.609	0.103952
6.61	0.077478
6.611	0.045039
6.612	-0.006012
6.613	-0.02747
6.614	0.004268
6.615	0.041483
6.616	0.025946
6.617	-0.035209
6.618	-0.072372
6.619	-0.04047
6.62	0.032058
6.621	0.092774
6.622	0.070214
6.623	-0.140222
6.624	-0.535253
6.625	-0.897026
6.626	-0.977674
6.627	-0.747103
6.628	-0.377364
6.629	-0.056025
6.63	0.118327
6.631	0.138942
6.632	0.081779
6.633	0.057652
6.634	0.106245
6.635	0.159418
6.636	0.137328
6.637	0.048662
6.638	-0.027109
6.639	-0.044984
6.64	-0.033798
6.641	-0.024683
6.642	-0.027447
6.643	-0.054528
6.644	-0.053801
6.645	0.04833
6.646	0.148405
6.647	0.095987
6.648	-0.025047
6.649	-0.060396
6.65	-0.033102
6.651	-0.041377
6.652	-0.088619
6.653	-0.093941
6.654	-0.020978
6.655	0.064974
6.656	0.084645
6.657	0.039088
6.658	-0.008506
6.659	-0.02409
6.66	-0.030389
6.661	-0.043112
6.662	-0.058286
6.663	-0.080232
6.664	-0.058367
6.665	0.066737
6.666	0.173769
6.667	0.110012
6.668	-0.02408
6.669	-0.055137
6.67	0.000909
6.671	0.033752
6.672	0.016836
6.673	0.021977
6.674	0.097093
6.675	0.183354
6.676	0.190468
6.677	0.110731
6.678	0.01469
6.679	-0.047898
6.68	-0.087927
6.681	-0.117786
6.682	-0.134691
6.683	-0.142196
6.684	-0.089565
6.685	0.069262
6.686	0.191592
6.687	0.119318
6.688	-0.035859
6.689	-0.089623
6.69	-0.052275
6.691	-0.028329
6.692	-0.040476
6.693	-0.027949
6.694	0.042061
6.695	0.118955
6.696	0.133498
6.697	0.081593
6.698	0.021391
6.699	-0.005137
6.7	-0.009729
6.701	-0.018564
6.702	-0.078432
6.703	-0.274448
6.704	-0.604406
6.705	-0.890609
6.706	-0.939698
6.707	-0.731079
6.708	-0.395882
6.709	-0.080054
6.71	0.129081
6.711	0.205462
6.712	0.186433
6.713	0.150192
6.714	0.148378
6.715	0.165673
6.716	0.153085
6.717	0.095437
6.718	0.032103
6.719	-0.000603
6.72	-0.010183
6.721	-0.009587
6.722	-0.013035
6.723	-0.061753
6.724	-0.143754
6.725	-0.181919
6.726	-0.184852
6.727	-0.210346
6.728	-0.204857
6.729	-0.102891
6.73	0.028782
6.731	0.079981
6.732	0.03023
6.733	-0.044586
6.734	-0.056323
6.735	0.007894
6.736	0.077558
6.737	0.088887
6.738	0.059086
6.739	0.038616
6.74	0.040246
6.741	0.057699
6.742	0.072361
6.743	0.030142
6.744	-0.076363
6.745	-0.174504
6.746	-0.24256
6.747	-0.295665
6.748	-0.266384
6.749	-0.115288
6.75	0.049815
6.751	0.100333
6.752	0.033057
6.753	-0.054945
6.754	-0.081361
6.755	-0.04447
6.756	-0.00195
6.757	0.004163
6.758	-0.003582
6.759	0.014043
6.76	0.055192
6.761	0.103872
6.762	0.146372
6.763	0.165007
6.764	0.210492
6.765	0.357099
6.766	0.494334
6.767	0.434796
6.768	0.234489
6.769	0.089783
6.77	0.037136
6.771	-0.012477
6.772	-0.086218
6.773	-0.128796
6.774	-0.100774
6.775	-0.032361
6.776	0.011565
6.777	0.003934
6.778	-0.016581
6.779	-0.003731
6.78	0.041938
6.781	0.103508
6.782	0.170848
6.783	0.240163
6.784	0.375445
6.785	0.620869
6.786	0.77733
6.787	0.616473
6.788	0.284053
6.789	0.085124
6.79	0.065822
6.791	0.081581
6.792	0.054586
6.793	0.02202
6.794	0.026608
6.795	0.04405
6.796	0.026707
6.797	-0.026101
6.798	-0.066049
6.799	-0.054819
6.8	-0.001838
6.801	0.068973
6.802	0.140078
6.803	0.203123
6.804	0.322947
6.805	0.547707
6.806	0.684385
6.807	0.516368
6.808	0.203001
6.809	0.048542
6.81	0.077776
6.811	0.117442
6.812	0.070858
6.813	-0.018931
6.814	-0.075762
6.815	-0.084166
6.816	-0.077516
6.817	-0.0774
6.818	-0.067734
6.819	-0.028637
6.82	0.029821
6.821	0.094778
6.822	0.164613
6.823	0.241444
6.824	0.378713
6.825	0.594705
6.826	0.686858
6.827	0.469997
6.828	0.140431
6.829	0.004223
6.83	0.058288
6.831	0.099887
6.832	0.015373
6.833	-0.14729
6.834	-0.274197
6.835	-0.309075
6.836	-0.297445
6.837	-0.296862
6.838	-0.270939
6.839	-0.146953
6.84	0.063127
6.841	0.262283
6.842	0.323282
6.843	0.186227
6.844	0.015502
6.845	0.052621
6.846	0.206909
6.847	0.198752
6.848	0.067345
6.849	0.045232
6.85	0.138199
6.851	0.170344
6.852	0.039115
6.853	-0.199692
6.854	-0.396645
6.855	-0.430456
6.856	-0.304863
6.857	-0.124016
6.858	0.023397
6.859	0.109546
6.86	0.136356
6.861	0.133346
6.862	0.142225
6.863	0.181624
6.864	0.276921
6.865	0.401727
6.866	0.371394
6.867	0.107174
6.868	-0.127002
6.869	-0.100455
6.87	0.07192
6.871	0.164099
6.872	0.106504
6.873	-0.006283
6.874	-0.053598
6.875	-0.025387
6.876	-0.016499
6.877	-0.075662
6.878	-0.125085
6.879	-0.074125
6.88	0.065892
6.881	0.20561
6.882	0.225341
6.883	0.046341
6.884	-0.211206
6.885	-0.297483
6.886	-0.180031
6.887	-0.033175
6.888	0.078387
6.889	0.168202
6.89	0.170397
6.891	0.039882
6.892	-0.131163
6.893	-0.188619
6.894	-0.089883
6.895	0.046064
6.896	0.080806
6.897	0.006463
6.898	-0.06579
6.899	-0.044252
6.9	0.059038
6.901	0.169856
6.902	0.19855
6.903	0.100385
6.904	0.004519
6.905	0.091315
6.906	0.257012
6.907	0.275727
6.908	0.196969
6.909	0.170657
6.91	0.154217
6.911	0.04283
6.912	-0.128719
6.913	-0.211924
6.914	-0.129285
6.915	0.021602
6.916	0.085272
6.917	0.027198
6.918	-0.04979
6.919	-0.045571
6.92	0.041004
6.921	0.145602
6.922	0.182739
6.923	0.107187
6.924	0.040982
6.925	0.145507
6.926	0.298761
6.927	0.280435
6.928	0.164913
6.929	0.122484
6.93	0.116677
6.931	0.041248
6.932	-0.078629
6.933	-0.122805
6.934	-0.044394
6.935	0.063114
6.936	0.081157
6.937	0.002423
6.938	-0.073578
6.939	-0.060795
6.94	0.036998
6.941	0.159553
6.942	0.226446
6.943	0.188035
6.944	0.145178
6.945	0.23479
6.946	0.335004
6.947	0.255479
6.948	0.105534
6.949	0.067627
6.95	0.088806
6.951	0.035408
6.952	-0.089832
6.953	-0.173711
6.954	-0.148799
6.955	-0.071239
6.956	-0.038103
6.957	-0.068247
6.958	-0.091524
6.959	-0.042792
6.96	0.069628
6.961	0.192322
6.962	0.26511
6.963	0.275279
6.964	0.362919
6.965	0.652588
6.966	0.90286
6.967	0.783453
6.968	0.426646
6.969	0.179608
6.97	0.095558
6.971	0.025781
6.972	-0.078471
6.973	-0.134672
6.974	-0.085977
6.975	0.00476
6.976	0.032051
6.977	-0.023519
6.978	-0.07676
6.979	-0.043663
6.98	0.072732
6.981	0.209357
6.982	0.287197
6.983	0.264218
6.984	0.247422
6.985	0.380551
6.986	0.533613
6.987	0.466935
6.988	0.260311
6.989	0.14559
6.99	0.121652
6.991	0.044377
6.992	-0.112603
6.993	-0.234518
6.994	-0.223466
6.995	-0.115979
6.996	-0.03331
6.997	-0.036122
6.998	-0.062232
6.999	-0.024535
7.0	0.084697
7.001	0.218065
7.002	0.321703
7.003	0.372167
7.004	0.449891
7.005	0.607845
7.006	0.641009
7.007	0.385605
7.008	0.083254
7.009	-0.000223
7.01	0.050043
7.011	0.042493
7.012	-0.043338
7.013	-0.099348
7.014	-0.064997
7.015	0.001988
7.016	0.012924
7.017	-0.042881
7.018	-0.087422
7.019	-0.049951
7.02	0.056834
7.021	0.169617
7.022	0.218049
7.023	0.165184
7.024	0.098724
7.025	0.132928
7.026	0.167689
7.027	0.070724
7.028	-0.022739
7.029	0.032678
7.03	0.128298
7.031	0.106684
7.032	-0.021629
7.033	-0.12549
7.034	-0.120874
7.035	-0.051924
7.036	-0.014202
7.037	-0.037587
7.038	-0.063013
7.039	-0.03
7.04	0.052195
7.041	0.136387
7.042	0.181727
7.043	0.189579
7.044	0.266956
7.045	0.475249
7.046	0.586312
7.047	0.399274
7.048	0.134457
7.049	0.056166
7.05	0.086554
7.051	0.039494
7.052	-0.104221
7.053	-0.223146
7.054	-0.224039
7.055	-0.139705
7.056	-0.066497
7.057	-0.047172
7.058	-0.040685
7.059	0.00203
7.06	0.074168
7.061	0.138069
7.062	0.161833
7.063	0.156111
7.064	0.238706
7.065	0.473651
7.066	0.61936
7.067	0.456214
7.068	0.194475
7.069	0.10131
7.07	0.110973
7.071	0.048531
7.072	-0.104558
7.073	-0.234643
7.074	-0.245981
7.075	-0.155207
7.076	-0.057194
7.077	-0.016027
7.078	-0.006855
7.079	0.023453
7.08	0.080512
7.081	0.135942
7.082	0.162776
7.083	0.173607
7.084	0.282799
7.085	0.540195
7.086	0.688189
7.087	0.505905
7.088	0.215932
7.089	0.103496
7.09	0.120003
7.091	0.095167
7.092	-0.004538
7.093	-0.096891
7.094	-0.114016
7.095	-0.069094
7.096	-0.024132
7.097	-0.016004
7.098	-0.019761
7.099	0.004653
7.1	0.057312
7.101	0.117556
7.102	0.171886
7.103	0.23549
7.104	0.400205
7.105	0.678969
7.106	0.797256
7.107	0.55347
7.108	0.206169
7.109	0.065606
7.11	0.083636
7.111	0.068594
7.112	-0.046568
7.113	-0.199971
7.114	-0.293628
7.115	-0.276196
7.116	-0.182692
7.117	-0.086787
7.118	-0.01678
7.119	0.043182
7.12	0.101156
7.121	0.160906
7.122	0.233045
7.123	0.335794
7.124	0.533685
7.125	0.807652
7.126	0.879835
7.127	0.573322
7.128	0.178605
7.129	0.025557
7.13	0.062039
7.131	0.077282
7.132	-0.011671
7.133	-0.144595
7.134	-0.219388
7.135	-0.192058
7.136	-0.10799
7.137	-0.036023
7.138	0.00773
7.139	0.042783
7.14	0.076278
7.141	0.121166
7.142	0.20658
7.143	0.355303
7.144	0.603845
7.145	0.8918
7.146	0.92683
7.147	0.557141
7.148	0.115174
7.149	-0.041142
7.15	0.036595
7.151	0.116485
7.152	0.084587
7.153	-0.029793
7.154	-0.144744
7.155	-0.209665
7.156	-0.235591
7.157	-0.248109
7.158	-0.221552
7.159	-0.113493
7.16	0.056133
7.161	0.217438
7.162	0.297347
7.163	0.286402
7.164	0.342268
7.165	0.602145
7.166	0.832706
7.167	0.72239
7.168	0.394405
7.169	0.140003
7.17	-0.002378
7.171	-0.111983
7.172	-0.160893
7.173	-0.069691
7.174	0.110114
7.175	0.196206
7.176	0.088949
7.177	-0.118969
7.178	-0.264059
7.179	-0.2771
7.18	-0.207665
7.181	-0.136174
7.182	-0.149933
7.183	-0.341731
7.184	-0.678967
7.185	-0.946884
7.186	-0.951093
7.187	-0.707297
7.188	-0.377115
7.189	-0.106654
7.19	0.037324
7.191	0.069443
7.192	0.079023
7.193	0.159526
7.194	0.297069
7.195	0.371617
7.196	0.30074
7.197	0.136554
7.198	-0.002701
7.199	-0.058399
7.2	-0.05499
7.201	-0.033071
7.202	-0.048691
7.203	-0.192195
7.204	-0.469216
7.205	-0.721623
7.206	-0.779506
7.207	-0.627809
7.208	-0.3734
7.209	-0.130904
7.21	0.025217
7.211	0.0776
7.212	0.081688
7.213	0.119142
7.214	0.201545
7.215	0.253389
7.216	0.21088
7.217	0.103107
7.218	0.014184
7.219	-0.017565
7.22	-0.021503
7.221	-0.029442
7.222	-0.079191
7.223	-0.242384
7.224	-0.517681
7.225	-0.75644
7.226	-0.801119
7.227	-0.638416
7.228	-0.37055
7.229	-0.109997
7.23	0.065688
7.231	0.125577
7.232	0.100946
7.233	0.063021
7.234	0.057481
7.235	0.071922
7.236	0.070916
7.237	0.049149
7.238	0.033822
7.239	0.026573
7.24	-0.00418
7.241	-0.051245
7.242	-0.069864
7.243	-0.032623
7.244	0.09612
7.245	0.300718
7.246	0.390888
7.247	0.225925
7.248	-0.019429
7.249	-0.10923
7.25	-0.045629
7.251	0.038559
7.252	0.075016
7.253	0.089742
7.254	0.117517
7.255	0.141354
7.256	0.126263
7.257	0.077036
7.258	0.031547
7.259	-0.00222
7.26	-0.050673
7.261	-0.111895
7.262	-0.176807
7.263	-0.292521
7.264	-0.487017
7.265	-0.670185
7.266	-0.714354
7.267	-0.590898
7.268	-0.371649
7.269	-0.150891
7.27	0.001051
7.271	0.058471
7.272	0.053432
7.273	0.04867
7.274	0.074319
7.275	0.105357
7.276	0.108259
7.277	0.087827
7.278	0.068353
7.279	0.04022
7.28	-0.025124
7.281	-0.110468
7.282	-0.186687
7.283	-0.290367
7.284	-0.455248
7.285	-0.607994
7.286	-0.636813
7.287	-0.518859
7.288	-0.322786
7.289	-0.136662
7.29	-0.024026
7.291	-0.005903
7.292	-0.055023
7.293	-0.119888
7.294	-0.16039
7.295	-0.158076
7.296	-0.108176
7.297	-0.018094
7.298	0.080607
7.299	0.128272
7.3	0.081821
7.301	-0.035221
7.302	-0.188001
7.303	-0.397516
7.304	-0.646783
7.305	-0.799374
7.306	-0.731812
7.307	-0.482508
7.308	-0.206463
7.309	-0.037645
7.31	-0.016511
7.311	-0.089029
7.312	-0.158639
7.313	-0.175146
7.314	-0.160646
7.315	-0.141464
7.316	-0.09768
7.317	0.001985
7.318	0.136093
7.319	0.224637
7.32	0.2038
7.321	0.09082
7.322	-0.077078
7.323	-0.314642
7.324	-0.591485
7.325	-0.755851
7.326	-0.680471
7.327	-0.415935
7.328	-0.136606
7.329	0.011818
7.33	-0.001827
7.331	-0.092366
7.332	-0.145091
7.333	-0.140563
7.334	-0.14275
7.335	-0.168572
7.336	-0.152165
7.337	-0.039395
7.338	0.131952
7.339	0.256486
7.34	0.262626
7.341	0.182416
7.342	0.079534
7.343	-0.053498
7.344	-0.232444
7.345	-0.385475
7.346	-0.417865
7.347	-0.316038
7.348	-0.13964
7.349	0.041642
7.35	0.178331
7.351	0.253278
7.352	0.283185
7.353	0.288828
7.354	0.271151
7.355	0.224788
7.356	0.162632
7.357	0.114102
7.358	0.088356
7.359	0.046558
7.36	-0.044589
7.361	-0.110403
7.362	0.017887
7.363	0.466131
7.364	1.20675
7.365	1.910113
7.366	1.982644
7.367	1.235039
7.368	0.27915
7.369	-0.21106
7.37	-0.174734
7.371	0.070919
7.372	0.269257
7.373	0.377176
7.374	0.46633
7.375	0.542883
7.376	0.516702
7.377	0.339057
7.378	0.082186
7.379	-0.155573
7.38	-0.328502
7.381	-0.39103
7.382	-0.300967
7.383	-0.123123
7.384	-0.022233
7.385	-0.114491
7.386	-0.356006
7.387	-0.577681
7.388	-0.623912
7.389	-0.465843
7.39	-0.201341
7.391	0.032341
7.392	0.152065
7.393	0.164651
7.394	0.129382
7.395	0.096117
7.396	0.075588
7.397	0.053204
7.398	0.012492
7.399	-0.068308
7.4	-0.19319
7.401	-0.290992
7.402	-0.270017
7.403	-0.157186
7.404	-0.093668
7.405	-0.176186
7.406	-0.347579
7.407	-0.456374
7.408	-0.413845
7.409	-0.268888
7.41	-0.13087
7.411	-0.054083
7.412	0.007031
7.413	0.130272
7.414	0.290249
7.415	0.350562
7.416	0.232584
7.417	0.021391
7.418	-0.133456
7.419	-0.177796
7.42	-0.165322
7.421	-0.157066
7.422	-0.203988
7.423	-0.360549
7.424	-0.586078
7.425	-0.71288
7.426	-0.627448
7.427	-0.403928
7.428	-0.193208
7.429	-0.070849
7.43	-0.029086
7.431	-0.023422
7.432	0.019652
7.433	0.156795
7.434	0.329901
7.435	0.404902
7.436	0.345232
7.437	0.240577
7.438	0.159786
7.439	0.074259
7.44	-0.056651
7.441	-0.20559
7.442	-0.354464
7.443	-0.552956
7.444	-0.774634
7.445	-0.851093
7.446	-0.68299
7.447	-0.382619
7.448	-0.129414
7.449	-0.00418
7.45	0.003076
7.451	-0.067306
7.452	-0.150629
7.453	-0.174537
7.454	-0.126337
7.455	-0.067471
7.456	-0.046961
7.457	-0.039924
7.458	-0.00543
7.459	0.034061
7.46	0.025995
7.461	-0.035124
7.462	-0.140581
7.463	-0.311757
7.464	-0.506706
7.465	-0.584496
7.466	-0.469572
7.467	-0.251959
7.468	-0.068696
7.469	0.022936
7.47	0.033957
7.471	-0.003166
7.472	-0.033595
7.473	-0.003654
7.474	0.073006
7.475	0.121718
7.476	0.101656
7.477	0.053549
7.478	0.032091
7.479	0.025755
7.48	-0.011306
7.481	-0.081553
7.482	-0.174722
7.483	-0.312493
7.484	-0.462151
7.485	-0.510049
7.486	-0.407065
7.487	-0.234881
7.488	-0.092705
7.489	-0.003707
7.49	0.051646
7.491	0.084255
7.492	0.112182
7.493	0.164166
7.494	0.229228
7.495	0.250454
7.496	0.194448
7.497	0.097635
7.498	0.01918
7.499	-0.033678
7.5	-0.086437
7.501	-0.126001
7.502	-0.133937
7.503	-0.150964
7.504	-0.208416
7.505	-0.261785
7.506	-0.263312
7.507	-0.225764
7.508	-0.179621
7.509	-0.12979
7.51	-0.07807
7.511	-0.037216
7.512	-0.002713
7.513	0.046182
7.514	0.104893
7.515	0.13435
7.516	0.107102
7.517	0.046353
7.518	-0.004485
7.519	-0.040445
7.52	-0.07745
7.521	-0.092591
7.522	-0.066614
7.523	-0.055994
7.524	-0.119257
7.525	-0.220241
7.526	-0.283376
7.527	-0.283977
7.528	-0.234144
7.529	-0.142714
7.53	-0.032349
7.531	0.054146
7.532	0.097202
7.533	0.115958
7.534	0.123629
7.535	0.103221
7.536	0.0469
7.537	-0.014657
7.538	-0.047969
7.539	-0.061795
7.54	-0.079209
7.541	-0.082516
7.542	-0.060368
7.543	-0.075089
7.544	-0.17974
7.545	-0.317559
7.546	-0.388787
7.547	-0.362151
7.548	-0.270093
7.549	-0.155743
7.55	-0.058966
7.551	-0.001843
7.552	0.030647
7.553	0.062295
7.554	0.080443
7.555	0.054578
7.556	-0.005356
7.557	-0.048286
7.558	-0.042669
7.559	-0.015382
7.56	-0.009348
7.561	-0.023814
7.562	-0.05831
7.563	-0.164138
7.564	-0.352881
7.565	-0.521343
7.566	-0.553785
7.567	-0.439524
7.568	-0.249306
7.569	-0.060921
7.57	0.067473
7.571	0.110901
7.572	0.097094
7.573	0.080723
7.574	0.07632
7.575	0.05257
7.576	0.002233
7.577	-0.033828
7.578	-0.023992
7.579	0.006971
7.58	0.016074
7.581	0.002512
7.582	-0.033515
7.583	-0.143151
7.584	-0.342682
7.585	-0.532453
7.586	-0.585465
7.587	-0.471083
7.588	-0.255596
7.589	-0.036664
7.59	0.101868
7.591	0.122446
7.592	0.054494
7.593	-0.029736
7.594	-0.074718
7.595	-0.074751
7.596	-0.051903
7.597	-0.018783
7.598	0.019503
7.599	0.03538
7.6	-0.000298
7.601	-0.061572
7.602	-0.082236
7.603	0.005556
7.604	0.279007
7.605	0.685677
7.606	0.897996
7.607	0.682701
7.608	0.282604
7.609	0.052015
7.61	0.026099
7.611	0.047356
7.612	0.015265
7.613	-0.061574
7.614	-0.13336
7.615	-0.17125
7.616	-0.17125
7.617	-0.136909
7.618	-0.077698
7.619	-0.020581
7.62	0.011531
7.621	0.045043
7.622	0.130938
7.623	0.299342
7.624	0.577231
7.625	0.889143
7.626	0.95138
7.627	0.616848
7.628	0.179811
7.629	-0.023011
7.63	-0.007869
7.631	0.025619
7.632	-0.034657
7.633	-0.150769
7.634	-0.219087
7.635	-0.191273
7.636	-0.11411
7.637	-0.055208
7.638	-0.030122
7.639	-0.026978
7.64	-0.033146
7.641	-0.006423
7.642	0.099753
7.643	0.278374
7.644	0.492798
7.645	0.660665
7.646	0.60955
7.647	0.29752
7.648	-0.021202
7.649	-0.115073
7.65	-0.041716
7.651	0.017934
7.652	-0.024213
7.653	-0.129615
7.654	-0.210637
7.655	-0.216505
7.656	-0.159786
7.657	-0.083105
7.658	-0.023162
7.659	-0.008177
7.66	-0.040542
7.661	-0.06648
7.662	-0.02016
7.663	0.111211
7.664	0.314918
7.665	0.533302
7.666	0.597274
7.667	0.422562
7.668	0.175709
7.669	0.009654
7.67	-0.117768
7.671	-0.25827
7.672	-0.344086
7.673	-0.292737
7.674	-0.15088
7.675	-0.061969
7.676	-0.093649
7.677	-0.168874
7.678	-0.177255
7.679	-0.096727
7.68	0.019328
7.681	0.114565
7.682	0.141452
7.683	0.096945
7.684	0.114374
7.685	0.322164
7.686	0.558982
7.687	0.559703
7.688	0.352019
7.689	0.1298
7.69	-0.03897
7.691	-0.161176
7.692	-0.183465
7.693	-0.046444
7.694	0.176651
7.695	0.317473
7.696	0.304379
7.697	0.209593
7.698	0.113759
7.699	0.020943
7.7	-0.085326
7.701	-0.177932
7.702	-0.241548
7.703	-0.333532
7.704	-0.477046
7.705	-0.555793
7.706	-0.448868
7.707	-0.208675
7.708	0.003186
7.709	0.085759
7.71	0.038084
7.711	-0.078097
7.712	-0.154888
7.713	-0.102109
7.714	0.046577
7.715	0.149513
7.716	0.114847
7.717	-0.00332
7.718	-0.087745
7.719	-0.088463
7.72	-0.034045
7.721	0.027711
7.722	0.031675
7.723	-0.073348
7.724	-0.206026
7.725	-0.203984
7.726	-0.059625
7.727	0.076185
7.728	0.118099
7.729	0.094329
7.73	0.033002
7.731	-0.067573
7.732	-0.198029
7.733	-0.327838
7.734	-0.410716
7.735	-0.390038
7.736	-0.244358
7.737	-0.035598
7.738	0.119307
7.739	0.132574
7.74	0.01926
7.741	-0.091947
7.742	-0.058565
7.743	0.157063
7.744	0.488882
7.745	0.771103
7.746	0.753961
7.747	0.385962
7.748	-0.015054
7.749	-0.135109
7.75	0.002631
7.751	0.183434
7.752	0.262136
7.753	0.247468
7.754	0.206382
7.755	0.147108
7.756	0.049267
7.757	-0.053408
7.758	-0.100209
7.759	-0.079035
7.76	-0.017647
7.761	0.063197
7.762	0.11737
7.763	0.058842
7.764	-0.119654
7.765	-0.286897
7.766	-0.319903
7.767	-0.236518
7.768	-0.128043
7.769	-0.048099
7.77	-0.011457
7.771	-0.019372
7.772	-0.044186
7.773	-0.041506
7.774	-0.009587
7.775	0.00211
7.776	-0.032806
7.777	-0.074808
7.778	-0.07291
7.779	-0.029828
7.78	0.021536
7.781	0.067537
7.782	0.073731
7.783	-0.033381
7.784	-0.245733
7.785	-0.418335
7.786	-0.425897
7.787	-0.298011
7.788	-0.144124
7.789	-0.031837
7.79	0.022969
7.791	0.030036
7.792	0.028133
7.793	0.056834
7.794	0.094402
7.795	0.078423
7.796	0.003715
7.797	-0.060857
7.798	-0.061718
7.799	-0.02093
7.8	0.015196
7.801	0.041607
7.802	0.047779
7.803	-0.024695
7.804	-0.186486
7.805	-0.33619
7.806	-0.370667
7.807	-0.295092
7.808	-0.178845
7.809	-0.072171
7.81	0.004222
7.811	0.051163
7.812	0.100381
7.813	0.17609
7.814	0.227713
7.815	0.178337
7.816	0.047725
7.817	-0.059168
7.818	-0.081938
7.819	-0.059231
7.82	-0.050848
7.821	-0.064888
7.822	-0.104321
7.823	-0.207087
7.824	-0.36057
7.825	-0.461306
7.826	-0.434345
7.827	-0.315445
7.828	-0.179913
7.829	-0.068813
7.83	-0.0014
7.831	0.008693
7.832	-0.018988
7.833	-0.030891
7.834	-0.004154
7.835	0.023379
7.836	0.016608
7.837	-0.0046
7.838	-0.008071
