time_s	mv
0.0	0.057336
0.001	0.063452
0.002	0.06845
0.003	0.07128
0.004	0.071805
0.005	0.070579
0.006	0.06832
0.007	0.065565
0.008	0.062625
0.009	0.059392
0.01	0.055019
0.011	0.048252
0.012	0.038463
0.013	0.026508
0.014	0.014893
0.015	0.007233
0.016	0.006759
0.017	0.014133
0.018	0.026466
0.019	0.038906
0.02	0.047681
0.021	0.052215
0.022	0.054809
0.023	0.058342
0.024	0.064172
0.025	0.071869
0.026	0.080135
0.027	0.087517
0.028	0.092517
0.029	0.093487
0.03	0.088792
0.031	0.077572
0.032	0.060634
0.033	0.040668
0.034	0.021772
0.035	0.008404
0.036	0.003332
0.037	0.005916
0.038	0.013163
0.039	0.022509
0.04	0.0329
0.041	0.0436
0.042	0.053006
0.043	0.059242
0.044	0.061789
0.045	0.061799
0.046	0.060645
0.047	0.058815
0.048	0.05622
0.049	0.052533
0.05	0.047004
0.051	0.038788
0.052	0.027876
0.053	0.015744
0.054	0.005517
0.055	0.0013
0.056	0.005769
0.057	0.017496
0.058	0.031349
0.059	0.041976
0.06	0.046972
0.061	0.047365
0.062	0.045755
0.063	0.043881
0.064	0.041385
0.065	0.0364
0.066	0.02755
0.067	0.016407
0.068	0.009107
0.069	0.016262
0.07	0.050507
0.071	0.12071
0.072	0.222765
0.073	0.332026
0.074	0.408605
0.075	0.419704
0.076	0.362622
0.077	0.266529
0.078	0.172021
0.079	0.107489
0.08	0.079398
0.081	0.077825
0.082	0.087496
0.083	0.095924
0.084	0.096782
0.085	0.089498
0.086	0.076797
0.087	0.062298
0.088	0.048949
0.089	0.037799
0.09	0.027447
0.091	0.015097
0.092	-0.000824
0.093	-0.018161
0.094	-0.031488
0.095	-0.036308
0.096	-0.032901
0.097	-0.025728
0.098	-0.019685
0.099	-0.016986
0.1	-0.016564
0.101	-0.015601
0.102	-0.011768
0.103	-0.004863
0.104	0.002794
0.105	0.007687
0.106	0.007827
0.107	0.00426
0.108	-0.000942
0.109	-0.007657
0.11	-0.017668
0.111	-0.032105
0.112	-0.049514
0.113	-0.065699
0.114	-0.075335
0.115	-0.075022
0.116	-0.065537
0.117	-0.051236
0.118	-0.037569
0.119	-0.028834
0.12	-0.02694
0.121	-0.031168
0.122	-0.038952
0.123	-0.04699
0.124	-0.051995
0.125	-0.051512
0.126	-0.045079
0.127	-0.035029
0.128	-0.026259
0.129	-0.024161
0.13	-0.031076
0.131	-0.044643
0.132	-0.060103
0.133	-0.07335
0.134	-0.081475
0.135	-0.082646
0.136	-0.07729
0.137	-0.068462
0.138	-0.059907
0.139	-0.05374
0.14	-0.049722
0.141	-0.045963
0.142	-0.040374
0.143	-0.031823
0.144	-0.019878
0.145	-0.004538
0.146	0.011877
0.147	0.023006
0.148	0.021119
0.149	0.002731
0.15	-0.029003
0.151	-0.066926
0.152	-0.103471
0.153	-0.132321
0.154	-0.149121
0.155	-0.15259
0.156	-0.145443
0.157	-0.133294
0.158	-0.121283
0.159	-0.111369
0.16	-0.103013
0.161	-0.095732
0.162	-0.090185
0.163	-0.087205
0.164	-0.086578
0.165	-0.086935
0.166	-0.086798
0.167	-0.086177
0.168	-0.087206
0.169	-0.092705
0.17	-0.103744
0.171	-0.118317
0.172	-0.132248
0.173	-0.141557
0.174	-0.144253
0.175	-0.14041
0.176	-0.131504
0.177	-0.120191
0.178	-0.109881
0.179	-0.103325
0.18	-0.101293
0.181	-0.102595
0.182	-0.10537
0.183	-0.108783
0.184	-0.113453
0.185	-0.119168
0.186	-0.121454
0.187	-0.111117
0.188	-0.078405
0.189	-0.019545
0.19	0.057346
0.191	0.130631
0.192	0.172732
0.193	0.16589
0.194	0.114288
0.195	0.041258
0.196	-0.0258
0.197	-0.069873
0.198	-0.08847
0.199	-0.088636
0.2	-0.080152
0.201	-0.071103
0.202	-0.065925
0.203	-0.065459
0.204	-0.068238
0.205	-0.072063
0.206	-0.075745
0.207	-0.080247
0.208	-0.087878
0.209	-0.100153
0.21	-0.116305
0.211	-0.133221
0.212	-0.146711
0.213	-0.153612
0.214	-0.153137
0.215	-0.146585
0.216	-0.136504
0.217	-0.126077
0.218	-0.118017
0.219	-0.11335
0.22	-0.11131
0.221	-0.110331
0.222	-0.109195
0.223	-0.107681
0.224	-0.106144
0.225	-0.104515
0.226	-0.102386
0.227	-0.100423
0.228	-0.10121
0.229	-0.107981
0.23	-0.121832
0.231	-0.139905
0.232	-0.156618
0.233	-0.166994
0.234	-0.168925
0.235	-0.163141
0.236	-0.152383
0.237	-0.140515
0.238	-0.131011
0.239	-0.125432
0.24	-0.123065
0.241	-0.121847
0.242	-0.120031
0.243	-0.117228
0.244	-0.113764
0.245	-0.109704
0.246	-0.105468
0.247	-0.102993
0.248	-0.105287
0.249	-0.114449
0.25	-0.129774
0.251	-0.147401
0.252	-0.162074
0.253	-0.169925
0.254	-0.170031
0.255	-0.164107
0.256	-0.155541
0.257	-0.148031
0.258	-0.143537
0.259	-0.141058
0.26	-0.137695
0.261	-0.131046
0.262	-0.120936
0.263	-0.109182
0.264	-0.097865
0.265	-0.088357
0.266	-0.081998
0.267	-0.080851
0.268	-0.087166
0.269	-0.101974
0.27	-0.12389
0.271	-0.148931
0.272	-0.171859
0.273	-0.188399
0.274	-0.196628
0.275	-0.197007
0.276	-0.19178
0.277	-0.184072
0.278	-0.176805
0.279	-0.171858
0.28	-0.169694
0.281	-0.169558
0.282	-0.170138
0.283	-0.170063
0.284	-0.168021
0.285	-0.163162
0.286	-0.155947
0.287	-0.148683
0.288	-0.145161
0.289	-0.149091
0.29	-0.16152
0.291	-0.179114
0.292	-0.195604
0.293	-0.205618
0.294	-0.207472
0.295	-0.203212
0.296	-0.197002
0.297	-0.193047
0.298	-0.193532
0.299	-0.197542
0.3	-0.202043
0.301	-0.204388
0.302	-0.204226
0.303	-0.203454
0.304	-0.204722
0.305	-0.209199
0.306	-0.213763
0.307	-0.209281
0.308	-0.18293
0.309	-0.125377
0.31	-0.039669
0.311	0.053693
0.312	0.121698
0.313	0.136039
0.314	0.091888
0.315	0.010966
0.316	-0.073741
0.317	-0.136876
0.318	-0.169586
0.319	-0.176981
0.32	-0.170668
0.321	-0.162124
0.322	-0.158599
0.323	-0.161784
0.324	-0.169254
0.325	-0.177314
0.326	-0.18346
0.327	-0.187849
0.328	-0.193384
0.329	-0.203798
0.33	-0.220691
0.331	-0.241812
0.332	-0.261957
0.333	-0.2758
0.334	-0.280591
0.335	-0.277061
0.336	-0.268364
0.337	-0.258274
0.338	-0.249768
0.339	-0.24425
0.34	-0.24147
0.341	-0.240088
0.342	-0.23851
0.343	-0.235782
0.344	-0.232008
0.345	-0.227675
0.346	-0.223076
0.347	-0.2192
0.348	-0.218689
0.349	-0.224805
0.35	-0.23892
0.351	-0.258803
0.352	-0.279249
0.353	-0.294576
0.354	-0.301369
0.355	-0.3
0.356	-0.294128
0.357	-0.288505
0.358	-0.286262
0.359	-0.287175
0.36	-0.288293
0.361	-0.286483
0.362	-0.280706
0.363	-0.272416
0.364	-0.264158
0.365	-0.257808
0.366	-0.254159
0.367	-0.253789
0.368	-0.257395
0.369	-0.265251
0.37	-0.276894
0.371	-0.291065
0.372	-0.30553
0.373	-0.317409
0.374	-0.324263
0.375	-0.325183
0.376	-0.321297
0.377	-0.315494
0.378	-0.310908
0.379	-0.3089
0.38	-0.308437
0.381	-0.307178
0.382	-0.303052
0.383	-0.295358
0.384	-0.28469
0.385	-0.272025
0.386	-0.258477
0.387	-0.246005
0.388	-0.237837
0.389	-0.237702
0.39	-0.247972
0.391	-0.267758
0.392	-0.2926
0.393	-0.31641
0.394	-0.334106
0.395	-0.343019
0.396	-0.343205
0.397	-0.337317
0.398	-0.329435
0.399	-0.323022
0.4	-0.319391
0.401	-0.317565
0.402	-0.315545
0.403	-0.311954
0.404	-0.306445
0.405	-0.299144
0.406	-0.290715
0.407	-0.282925
0.408	-0.278457
0.409	-0.279974
0.41	-0.289049
0.411	-0.305123
0.412	-0.325089
0.413	-0.344232
0.414	-0.358051
0.415	-0.364116
0.416	-0.36352
0.417	-0.360407
0.418	-0.358751
0.419	-0.35919
0.42	-0.359233
0.421	-0.356293
0.422	-0.350356
0.423	-0.343845
0.424	-0.339494
0.425	-0.339046
0.426	-0.34291
0.427	-0.348558
0.428	-0.348085
0.429	-0.328753
0.43	-0.278669
0.431	-0.195496
0.432	-0.094175
0.433	-0.007235
0.434	0.029432
0.435	-0.000139
0.436	-0.080218
0.437	-0.174801
0.438	-0.250572
0.439	-0.292485
0.44	-0.304352
0.441	-0.299398
0.442	-0.290212
0.443	-0.283788
0.444	-0.281576
0.445	-0.281777
0.446	-0.281591
0.447	-0.279132
0.448	-0.275438
0.449	-0.275015
0.45	-0.283255
0.451	-0.302418
0.452	-0.329632
0.453	-0.358118
0.454	-0.380356
0.455	-0.391709
0.456	-0.392712
0.457	-0.387911
0.458	-0.382071
0.459	-0.377225
0.46	-0.372543
0.461	-0.366378
0.462	-0.35831
0.463	-0.349355
0.464	-0.340796
0.465	-0.333273
0.466	-0.326848
0.467	-0.321764
0.468	-0.319124
0.469	-0.320804
0.47	-0.328653
0.471	-0.343371
0.472	-0.363414
0.473	-0.38462
0.474	-0.401409
0.475	-0.409633
0.476	-0.409041
0.477	-0.40286
0.478	-0.394929
0.479	-0.387099
0.48	-0.378875
0.481	-0.36911
0.482	-0.357786
0.483	-0.346231
0.484	-0.336019
0.485	-0.327709
0.486	-0.320511
0.487	-0.31349
0.488	-0.30737
0.489	-0.30508
0.49	-0.310378
0.491	-0.325378
0.492	-0.34861
0.493	-0.37496
0.494	-0.397779
0.495	-0.411834
0.496	-0.415135
0.497	-0.409135
0.498	-0.397846
0.499	-0.385941
0.5	-0.376411
0.501	-0.369203
0.502	-0.361709
0.503	-0.350867
0.504	-0.335446
0.505	-0.31666
0.506	-0.29705
0.507	-0.279461
0.508	-0.267034
0.509	-0.263254
0.51	-0.271054
0.511	-0.29116
0.512	-0.320835
0.513	-0.35424
0.514	-0.384544
0.515	-0.406473
0.516	-0.41791
0.517	-0.420136
0.518	-0.416512
0.519	-0.410086
0.52	-0.402123
0.521	-0.392544
0.522	-0.381109
0.523	-0.368243
0.524	-0.355089
0.525	-0.342867
0.526	-0.332349
0.527	-0.323947
0.528	-0.318087
0.529	-0.315769
0.53	-0.319008
0.531	-0.330077
0.532	-0.349467
0.533	-0.374326
0.534	-0.399015
0.535	-0.417385
0.536	-0.425393
0.537	-0.423074
0.538	-0.414457
0.539	-0.404646
0.54	-0.396307
0.541	-0.388687
0.542	-0.379601
0.543	-0.368185
0.544	-0.356042
0.545	-0.346149
0.546	-0.340784
0.547	-0.339693
0.548	-0.338882
0.549	-0.330323
0.55	-0.303467
0.551	-0.249599
0.552	-0.169306
0.553	-0.080152
0.554	-0.015406
0.555	-0.006457
0.556	-0.059902
0.557	-0.151734
0.558	-0.244155
0.559	-0.308289
0.56	-0.335513
0.561	-0.33398
0.562	-0.318004
0.563	-0.299536
0.564	-0.285048
0.565	-0.276041
0.566	-0.271011
0.567	-0.267796
0.568	-0.265659
0.569	-0.266451
0.57	-0.273969
0.571	-0.291579
0.572	-0.319758
0.573	-0.355118
0.574	-0.391063
0.575	-0.420092
0.576	-0.437383
0.577	-0.44313
0.578	-0.441012
0.579	-0.434363
0.58	-0.424062
0.581	-0.409518
0.582	-0.39092
0.583	-0.37034
0.584	-0.350792
0.585	-0.334476
0.586	-0.321918
0.587	-0.312391
0.588	-0.305149
0.589	-0.300922
0.59	-0.302579
0.591	-0.313916
0.592	-0.337007
0.593	-0.369937
0.594	-0.406371
0.595	-0.437656
0.596	-0.456666
0.597	-0.460841
0.598	-0.452675
0.599	-0.437667
0.6	-0.420836
0.601	-0.404192
0.602	-0.387208
0.603	-0.369214
0.604	-0.35092
0.605	-0.333906
0.606	-0.319236
0.607	-0.306952
0.608	-0.297078
0.609	-0.29116
0.61	-0.292669
0.611	-0.305416
0.612	-0.33094
0.613	-0.366667
0.614	-0.405976
0.615	-0.440465
0.616	-0.463348
0.617	-0.471775
0.618	-0.466929
0.619	-0.452371
0.62	-0.431719
0.621	-0.407361
0.622	-0.380855
0.623	-0.353587
0.624	-0.326734
0.625	-0.301245
0.626	-0.278129
0.627	-0.258553
0.628	-0.243714
0.629	-0.235093
0.63	-0.235198
0.631	-0.247536
0.632	-0.274501
0.633	-0.314275
0.634	-0.359777
0.635	-0.401356
0.636	-0.431256
0.637	-0.446156
0.638	-0.446576
0.639	-0.434932
0.64	-0.414273
0.641	-0.388134
0.642	-0.360424
0.643	-0.33448
0.644	-0.312044
0.645	-0.293266
0.646	-0.277452
0.647	-0.263744
0.648	-0.25184
0.649	-0.243118
0.65	-0.241377
0.651	-0.251753
0.652	-0.277662
0.653	-0.317667
0.654	-0.364548
0.655	-0.407408
0.656	-0.435795
0.657	-0.443958
0.658	-0.433195
0.659	-0.41039
0.66	-0.383395
0.661	-0.35692
0.662	-0.331813
0.663	-0.307259
0.664	-0.283422
0.665	-0.262311
0.666	-0.2467
0.667	-0.238481
0.668	-0.237083
0.669	-0.238088
0.67	-0.232894
0.671	-0.210647
0.672	-0.163325
0.673	-0.093964
0.674	-0.02347
0.675	0.014552
0.676	-0.005259
0.677	-0.079493
0.678	-0.176574
0.679	-0.257679
0.68	-0.298663
0.681	-0.297968
0.682	-0.270162
0.683	-0.233876
0.684	-0.202984
0.685	-0.18386
0.686	-0.176551
0.687	-0.177297
0.688	-0.181404
0.689	-0.186256
0.69	-0.193607
0.691	-0.209275
0.692	-0.239661
0.693	-0.286964
0.694	-0.346056
0.695	-0.405256
0.696	-0.451087
0.697	-0.474385
0.698	-0.473624
0.699	-0.453612
0.7	-0.42184
0.701	-0.385294
0.702	-0.348674
0.703	-0.314584
0.704	-0.284958
0.705	-0.261459
0.706	-0.244458
0.707	-0.232553
0.708	-0.223867
0.709	-0.218304
0.71	-0.218954
0.711	-0.23139
0.712	-0.260913
0.713	-0.308984
0.714	-0.370582
0.715	-0.434126
0.716	-0.485075
0.717	-0.512093
0.718	-0.511906
0.719	-0.489478
0.72	-0.453817
0.721	-0.412844
0.722	-0.371102
0.723	-0.331143
0.724	-0.295651
0.725	-0.267468
0.726	-0.248083
0.727	-0.236577
0.728	-0.230071
0.729	-0.226009
0.73	-0.225299
0.731	-0.233486
0.732	-0.258063
0.733	-0.303209
0.734	-0.365404
0.735	-0.432905
0.736	-0.489955
0.737	-0.523375
0.738	-0.527347
0.739	-0.504185
0.74	-0.461891
0.741	-0.410325
0.742	-0.357927
0.743	-0.310275
0.744	-0.270086
0.745	-0.237916
0.746	-0.213225
0.747	-0.194859
0.748	-0.180996
0.749	-0.170414
0.75	-0.165382
0.751	-0.173078
0.752	-0.202678
0.753	-0.259114
0.754	-0.337538
0.755	-0.422585
0.756	-0.49385
0.757	-0.534525
0.758	-0.537938
0.759	-0.508645
0.76	-0.458286
0.761	-0.399628
0.762	-0.342738
0.763	-0.294047
0.764	-0.256589
0.765	-0.230364
0.766	-0.212789
0.767	-0.199563
0.768	-0.186625
0.769	-0.173171
0.77	-0.163948
0.771	-0.168639
0.772	-0.19766
0.773	-0.25595
0.774	-0.337873
0.775	-0.426756
0.776	-0.500602
0.777	-0.541149
0.778	-0.541043
0.779	-0.50545
0.78	-0.44778
0.781	-0.382765
0.782	-0.321384
0.783	-0.26952
0.784	-0.229302
0.785	-0.201233
0.786	-0.18522
0.787	-0.179762
0.788	-0.180648
0.789	-0.180882
0.79	-0.172532
0.791	-0.149828
0.792	-0.112011
0.793	-0.066088
0.794	-0.029555
0.795	-0.027319
0.796	-0.076863
0.797	-0.170408
0.798	-0.273345
0.799	-0.344121
0.8	-0.358681
0.801	-0.320498
0.802	-0.252882
0.803	-0.183149
0.804	-0.130279
0.805	-0.101377
0.806	-0.093932
0.807	-0.099161
0.808	-0.105855
0.809	-0.105886
0.81	-0.100195
0.811	-0.101092
0.812	-0.127274
0.813	-0.192863
0.814	-0.296667
0.815	-0.418678
0.816	-0.526891
0.817	-0.591237
0.818	-0.596957
0.819	-0.549748
0.82	-0.470143
0.821	-0.381874
0.822	-0.302043
0.823	-0.238145
0.824	-0.191388
0.825	-0.160845
0.826	-0.143918
0.827	-0.134773
0.828	-0.125359
0.829	-0.110297
0.83	-0.092683
0.831	-0.086229
0.832	-0.110568
0.833	-0.180628
0.834	-0.295548
0.835	-0.434233
0.836	-0.561587
0.837	-0.64312
0.838	-0.659836
0.839	-0.614603
0.84	-0.527433
0.841	-0.424356
0.842	-0.326906
0.843	-0.247313
0.844	-0.190001
0.845	-0.155158
0.846	-0.139924
0.847	-0.137273
0.848	-0.13602
0.849	-0.125437
0.85	-0.10402
0.851	-0.085906
0.852	-0.097271
0.853	-0.161926
0.854	-0.284368
0.855	-0.441691
0.856	-0.590693
0.857	-0.68717
0.858	-0.706246
0.859	-0.651424
0.86	-0.548325
0.861	-0.429415
0.862	-0.320244
0.863	-0.234854
0.864	-0.179565
0.865	-0.157279
0.866	-0.166422
0.867	-0.196602
0.868	-0.228335
0.869	-0.241848
0.87	-0.23129
0.871	-0.213799
0.872	-0.224969
0.873	-0.300768
0.874	-0.454733
0.875	-0.664062
0.876	-0.875445
0.877	-1.029763
0.878	-1.090669
0.879	-1.058714
0.88	-0.964295
0.881	-0.847633
0.882	-0.740373
0.883	-0.65856
0.884	-0.605959
0.885	-0.580005
0.886	-0.575078
0.887	-0.58358
0.888	-0.598204
0.889	-0.6149
0.89	-0.625332
0.891	-0.58438
0.892	-0.367405
0.893	0.211775
0.894	1.266202
0.895	2.684805
0.896	4.152194
0.897	5.33914
0.898	6.067149
0.899	6.328629
0.9	6.215908
0.901	5.849924
0.902	5.344289
0.903	4.792754
0.904	4.260242
0.905	3.777371
0.906	3.348027
0.907	2.966353
0.908	2.631902
0.909	2.358419
0.91	2.173646
0.911	2.107639
0.912	2.176236
0.913	2.368377
0.914	2.637979
0.915	2.907476
0.916	3.09504
0.917	3.150939
0.918	3.069805
0.919	2.873108
0.92	2.588492
0.921	2.246549
0.922	1.887845
0.923	1.561462
0.924	1.310809
0.925	1.158449
0.926	1.100508
0.927	1.112895
0.928	1.165042
0.929	1.231479
0.93	1.295302
0.931	1.349081
0.932	1.397712
0.933	1.455471
0.934	1.532742
0.935	1.623685
0.936	1.70518
0.937	1.744012
0.938	1.707256
0.939	1.574577
0.94	1.348922
0.941	1.060836
0.942	0.763316
0.943	0.516444
0.944	0.367596
0.945	0.337895
0.946	0.420386
0.947	0.586632
0.948	0.795978
0.949	1.005757
0.95	1.1829
0.951	1.312784
0.952	1.398741
0.953	1.452576
0.954	1.483139
0.955	1.48899
0.956	1.458216
0.957	1.375717
0.958	1.232863
0.959	1.032292
0.96	0.787502
0.961	0.522105
0.962	0.269125
0.963	0.067006
0.964	-0.048246
0.965	-0.052155
0.966	0.061314
0.967	0.277331
0.968	0.561704
0.969	0.865933
0.97	1.138944
0.971	1.343717
0.972	1.467665
0.973	1.519046
0.974	1.513326
0.975	1.459579
0.976	1.356225
0.977	1.197706
0.978	0.984273
0.979	0.727048
0.98	0.447778
0.981	0.175231
0.982	-0.060359
0.983	-0.230472
0.984	-0.30756
0.985	-0.267948
0.986	-0.102677
0.987	0.172118
0.988	0.514896
0.989	0.868855
0.99	1.177572
0.991	1.401039
0.992	1.525368
0.993	1.559741
0.994	1.522119
0.995	1.424736
0.996	1.270866
0.997	1.062985
0.998	0.811122
0.999	0.533538
1.0	0.252272
1.001	-0.011289
1.002	-0.236649
1.003	-0.399159
1.004	-0.467813
1.005	-0.414288
1.006	-0.227861
1.007	0.074767
1.008	0.449862
1.009	0.837865
1.01	1.180526
1.011	1.434904
1.012	1.580111
1.013	1.61686
1.014	1.559393
1.015	1.424681
1.016	1.22784
1.017	0.984346
1.018	0.712279
1.019	0.432549
1.02	0.169252
1.021	-0.05097
1.022	-0.204003
1.023	-0.283822
1.024	-0.336343
1.025	-0.49484
1.026	-0.948043
1.027	-1.794239
1.028	-2.895959
1.029	-3.923474
1.03	-4.569204
1.031	-4.718481
1.032	-4.452765
1.033	-3.94788
1.034	-3.377928
1.035	-2.869193
1.036	-2.484531
1.037	-2.220102
1.038	-2.023691
1.039	-1.835415
1.04	-1.625837
1.041	-1.407137
1.042	-1.215983
1.043	-1.084822
1.044	-1.020327
1.045	-1.000074
1.046	-0.987153
1.047	-0.951309
1.048	-0.882893
1.049	-0.793262
1.05	-0.704174
1.051	-0.633625
1.052	-0.585731
1.053	-0.549451
1.054	-0.506218
1.055	-0.440658
1.056	-0.346841
1.057	-0.228072
1.058	-0.094152
1.059	0.040654
1.06	0.159298
1.061	0.244614
1.062	0.283562
1.063	0.272552
1.064	0.221237
1.065	0.151144
1.066	0.088239
1.067	0.052165
1.068	0.047367
1.069	0.062042
1.07	0.076811
1.071	0.077306
1.072	0.062261
1.073	0.043186
1.074	0.03713
1.075	0.057574
1.076	0.108842
1.077	0.185959
1.078	0.277893
1.079	0.370966
1.08	0.45079
1.081	0.503508
1.082	0.518385
1.083	0.492285
1.084	0.433052
1.085	0.357945
1.086	0.287146
1.087	0.236045
1.088	0.210119
1.089	0.204176
1.09	0.206009
1.091	0.203514
1.092	0.192197
1.093	0.178057
1.094	0.173544
1.095	0.189754
1.096	0.230435
1.097	0.291101
1.098	0.362434
1.099	0.433991
1.1	0.494916
1.101	0.533419
1.102	0.539571
1.103	0.511023
1.104	0.456272
1.105	0.39219
1.106	0.337109
1.107	0.303217
1.108	0.291827
1.109	0.293733
1.11	0.294702
1.111	0.283518
1.112	0.25848
1.113	0.22891
1.114	0.210261
1.115	0.215299
1.116	0.247568
1.117	0.301454
1.118	0.366854
1.119	0.432899
1.12	0.488344
1.121	0.522152
1.122	0.52721
1.123	0.503627
1.124	0.458115
1.125	0.401511
1.126	0.346407
1.127	0.30397
1.128	0.279762
1.129	0.270627
1.13	0.265858
1.131	0.254178
1.132	0.23277
1.133	0.210909
1.134	0.204563
1.135	0.226091
1.136	0.27658
1.137	0.345781
1.138	0.418931
1.139	0.483933
1.14	0.532843
1.141	0.559584
1.142	0.559914
1.143	0.534364
1.144	0.48965
1.145	0.435708
1.146	0.380885
1.147	0.33025
1.148	0.288679
1.149	0.264672
1.15	0.269659
1.151	0.312642
1.152	0.393353
1.153	0.496275
1.154	0.590534
1.155	0.642648
1.156	0.637576
1.157	0.589523
1.158	0.531115
1.159	0.491114
1.16	0.479032
1.161	0.484863
1.162	0.489882
1.163	0.479156
1.164	0.448345
1.165	0.403229
1.166	0.35497
1.167	0.314486
1.168	0.287795
1.169	0.273719
1.17	0.265515
1.171	0.256463
1.172	0.245657
1.173	0.239214
1.174	0.246265
1.175	0.273507
1.176	0.321792
1.177	0.385509
1.178	0.454309
1.179	0.516236
1.18	0.560821
1.181	0.581383
1.182	0.576465
1.183	0.549821
1.184	0.508758
1.185	0.46193
1.186	0.417441
1.187	0.381359
1.188	0.356684
1.189	0.343001
1.19	0.337361
1.191	0.336568
1.192	0.339731
1.193	0.349251
1.194	0.369469
1.195	0.403639
1.196	0.450997
1.197	0.506142
1.198	0.561316
1.199	0.609303
1.2	0.644395
1.201	0.661973
1.202	0.659065
1.203	0.63602
1.204	0.597263
1.205	0.5503
1.206	0.503678
1.207	0.464685
1.208	0.437283
1.209	0.421117
1.21	0.412671
1.211	0.408204
1.212	0.406462
1.213	0.40965
1.214	0.422399
1.215	0.448926
1.216	0.489897
1.217	0.541246
1.218	0.595283
1.219	0.642688
1.22	0.674743
1.221	0.685825
1.222	0.675302
1.223	0.647314
1.224	0.608659
1.225	0.566909
1.226	0.529456
1.227	0.50197
1.228	0.485986
1.229	0.477887
1.23	0.471408
1.231	0.462365
1.232	0.451829
1.233	0.445772
1.234	0.451958
1.235	0.475824
1.236	0.517288
1.237	0.570178
1.238	0.624539
1.239	0.670245
1.24	0.69973
1.241	0.708947
1.242	0.697256
1.243	0.667237
1.244	0.624571
1.245	0.577199
1.246	0.53327
1.247	0.498627
1.248	0.475264
1.249	0.461855
1.25	0.455924
1.251	0.455807
1.252	0.461501
1.253	0.47502
1.254	0.499835
1.255	0.538335
1.256	0.588522
1.257	0.642955
1.258	0.691459
1.259	0.725803
1.26	0.742319
1.261	0.740682
1.262	0.721613
1.263	0.686497
1.264	0.638329
1.265	0.582183
1.266	0.525132
1.267	0.476739
1.268	0.449551
1.269	0.457443
1.27	0.510483
1.271	0.607365
1.272	0.728973
1.273	0.839444
1.274	0.900888
1.275	0.896436
1.276	0.842118
1.277	0.774811
1.278	0.726924
1.279	0.708994
1.28	0.710084
1.281	0.710211
1.282	0.693542
1.283	0.655047
1.284	0.599958
1.285	0.539375
1.286	0.48528
1.287	0.446522
1.288	0.426397
1.289	0.422446
1.29	0.428458
1.291	0.437677
1.292	0.446223
1.293	0.45535
1.294	0.470382
1.295	0.49634
1.296	0.533566
1.297	0.576361
1.298	0.615273
1.299	0.641379
1.3	0.649152
1.301	0.636483
1.302	0.604085
1.303	0.555851
1.304	0.498722
1.305	0.440968
1.306	0.390133
1.307	0.351948
1.308	0.33004
1.309	0.325934
1.31	0.339042
1.311	0.366691
1.312	0.40495
1.313	0.450408
1.314	0.501189
1.315	0.555693
1.316	0.610465
1.317	0.660822
1.318	0.705973
1.319	0.754802
1.32	0.825084
1.321	0.933836
1.322	1.08624
1.323	1.27225
1.324	1.470638
1.325	1.654953
1.326	1.799497
1.327	1.884755
1.328	1.90032
1.329	1.845075
1.33	1.725345
1.331	1.551988
1.332	1.339298
1.333	1.106392
1.334	0.876943
1.335	0.675443
1.336	0.523197
1.337	0.435865
1.338	0.421459
1.339	0.478863
1.34	0.597837
1.341	0.761192
1.342	0.949457
1.343	1.145164
1.344	1.333112
1.345	1.498731
1.346	1.628381
1.347	1.710623
1.348	1.736899
1.349	1.702504
1.35	1.607888
1.351	1.459534
1.352	1.270587
1.353	1.060186
1.354	0.850569
1.355	0.664244
1.356	0.522422
1.357	0.442196
1.358	0.431822
1.359	0.487626
1.36	0.595889
1.361	0.73914
1.362	0.901974
1.363	1.0718
1.364	1.23582
1.365	1.379857
1.366	1.490809
1.367	1.558934
1.368	1.578029
1.369	1.545183
1.37	1.46119
1.371	1.331593
1.372	1.167764
1.373	0.986224
1.374	0.80622
1.375	0.647726
1.376	0.529596
1.377	0.466018
1.378	0.462714
1.379	0.515805
1.38	0.614026
1.381	0.74315
1.382	0.889608
1.383	1.040948
1.384	1.184885
1.385	1.309358
1.386	1.402872
1.387	1.454798
1.388	1.457457
1.389	1.409997
1.39	1.321846
1.391	1.213688
1.392	1.113684
1.393	1.047831
1.394	1.027207
1.395	1.038401
1.396	1.047103
1.397	1.020537
1.398	0.954272
1.399	0.877677
1.4	0.832694
1.401	0.846808
1.402	0.920669
1.403	1.033071
1.404	1.154829
1.405	1.261571
1.406	1.338761
1.407	1.379953
1.408	1.383387
1.409	1.349443
1.41	1.279676
1.411	1.177692
1.412	1.050042
1.413	0.906028
1.414	0.758016
1.415	0.621998
1.416	0.515409
1.417	0.452198
1.418	0.438389
1.419	0.470528
1.42	0.538124
1.421	0.628704
1.422	0.731206
1.423	0.836331
1.424	0.936223
1.425	1.023846
1.426	1.091623
1.427	1.131646
1.428	1.138375
1.429	1.111011
1.43	1.053341
1.431	0.971337
1.432	0.870445
1.433	0.755753
1.434	0.635501
1.435	0.522923
1.436	0.43303
1.437	0.377713
1.438	0.363074
1.439	0.388701
1.44	0.448268
1.441	0.531543
1.442	0.626843
1.443	0.723416
1.444	0.813265
1.445	0.890644
1.446	0.949982
1.447	0.985631
1.448	0.993758
1.449	0.973644
1.45	0.927417
1.451	0.858822
1.452	0.771965
1.453	0.671851
1.454	0.566513
1.455	0.467549
1.456	0.387921
1.457	0.339079
1.458	0.328027
1.459	0.354435
1.46	0.410264
1.461	0.48313
1.462	0.561149
1.463	0.636602
1.464	0.706346
1.465	0.768724
1.466	0.820543
1.467	0.857229
1.468	0.874537
1.469	0.869507
1.47	0.840971
1.471	0.789893
1.472	0.719341
1.473	0.634771
1.474	0.544167
1.475	0.456851
1.476	0.382285
1.477	0.32977
1.478	0.306969
1.479	0.316793
1.48	0.355592
1.481	0.41442
1.482	0.482654
1.483	0.551998
1.484	0.61766
1.485	0.675904
1.486	0.721861
1.487	0.750427
1.488	0.758531
1.489	0.74651
1.49	0.717398
1.491	0.674366
1.492	0.619128
1.493	0.553379
1.494	0.480978
1.495	0.408433
1.496	0.34449
1.497	0.299233
1.498	0.281319
1.499	0.294167
1.5	0.333887
1.501	0.390494
1.502	0.452235
1.503	0.510536
1.504	0.561625
1.505	0.604217
1.506	0.636738
1.507	0.65645
1.508	0.660041
1.509	0.644775
1.51	0.61006
1.511	0.560173
1.512	0.507678
1.513	0.473448
1.514	0.479386
1.515	0.535744
1.516	0.629335
1.517	0.722031
1.518	0.76842
1.519	0.745389
1.52	0.668364
1.521	0.579178
1.522	0.518115
1.523	0.503153
1.524	0.527259
1.525	0.569468
1.526	0.608843
1.527	0.632506
1.528	0.636306
1.529	0.62164
1.53	0.591857
1.531	0.550327
1.532	0.500328
1.533	0.44482
1.534	0.385771
1.535	0.325363
1.536	0.268769
1.537	0.224512
1.538	0.201172
1.539	0.203416
1.54	0.229715
1.541	0.272733
1.542	0.322614
1.543	0.371025
1.544	0.413159
1.545	0.447198
1.546	0.472342
1.547	0.487165
1.548	0.490101
1.549	0.481259
1.55	0.462853
1.551	0.437605
1.552	0.406787
1.553	0.36957
1.554	0.324724
1.555	0.273937
1.556	0.223634
1.557	0.183343
1.558	0.162057
1.559	0.164491
1.56	0.188629
1.561	0.226581
1.562	0.26857
1.563	0.306882
1.564	0.337693
1.565	0.360765
1.566	0.377575
1.567	0.389223
1.568	0.395355
1.569	0.39413
1.57	0.383326
1.571	0.362214
1.572	0.332171
1.573	0.295161
1.574	0.252654
1.575	0.20699
1.576	0.163059
1.577	0.127886
1.578	0.108541
1.579	0.10933
1.58	0.129474
1.581	0.163116
1.582	0.201778
1.583	0.237531
1.584	0.265626
1.585	0.285387
1.586	0.298522
1.587	0.306632
1.588	0.310389
1.589	0.310226
1.59	0.306904
1.591	0.300957
1.592	0.291348
1.593	0.275203
1.594	0.249977
1.595	0.215863
1.596	0.176143
1.597	0.136759
1.598	0.105753
1.599	0.090841
1.6	0.095529
1.601	0.11685
1.602	0.146626
1.603	0.175716
1.604	0.198523
1.605	0.21419
1.606	0.224121
1.607	0.22936
1.608	0.23022
1.609	0.227106
1.61	0.220951
1.611	0.212567
1.612	0.20142
1.613	0.185474
1.614	0.162754
1.615	0.132878
1.616	0.097883
1.617	0.063147
1.618	0.036807
1.619	0.02594
1.62	0.032214
1.621	0.050862
1.622	0.073466
1.623	0.092527
1.624	0.104948
1.625	0.112047
1.626	0.116716
1.627	0.12071
1.628	0.123497
1.629	0.122392
1.63	0.113852
1.631	0.095997
1.632	0.071972
1.633	0.052827
1.634	0.056566
1.635	0.100865
1.636	0.191752
1.637	0.313095
1.638	0.42475
1.639	0.479398
1.64	0.452554
1.641	0.359853
1.642	0.245151
1.643	0.15187
1.644	0.101588
1.645	0.090986
1.646	0.102148
1.647	0.116091
1.648	0.121717
1.649	0.117367
1.65	0.107104
1.651	0.095584
1.652	0.084633
1.653	0.072821
1.654	0.056764
1.655	0.032738
1.656	-0.000862
1.657	-0.04062
1.658	-0.077674
1.659	-0.101258
1.66	-0.10455
1.661	-0.089168
1.662	-0.064261
1.663	-0.040459
1.664	-0.024156
1.665	-0.016285
1.666	-0.014376
1.667	-0.015098
1.668	-0.016116
1.669	-0.016905
1.67	-0.018347
1.671	-0.021619
1.672	-0.027276
1.673	-0.035513
1.674	-0.047613
1.675	-0.066227
1.676	-0.092583
1.677	-0.123231
1.678	-0.150549
1.679	-0.167064
1.68	-0.169877
1.681	-0.161882
1.682	-0.149135
1.683	-0.136868
1.684	-0.127604
1.685	-0.121747
1.686	-0.118541
1.687	-0.116759
1.688	-0.115572
1.689	-0.115166
1.69	-0.116503
1.691	-0.120285
1.692	-0.125979
1.693	-0.132545
1.694	-0.14063
1.695	-0.153158
1.696	-0.1729
1.697	-0.199377
1.698	-0.227573
1.699	-0.249474
1.7	-0.258341
1.701	-0.252961
1.702	-0.238184
1.703	-0.22165
1.704	-0.209782
1.705	-0.205174
1.706	-0.206275
1.707	-0.209357
1.708	-0.21094
1.709	-0.208896
1.71	-0.202637
1.711	-0.193206
1.712	-0.183079
1.713	-0.175679
1.714	-0.174822
1.715	-0.183787
1.716	-0.203901
1.717	-0.23313
1.718	-0.265479
1.719	-0.292564
1.72	-0.307736
1.721	-0.309797
1.722	-0.302879
1.723	-0.293268
1.724	-0.286241
1.725	-0.284008
1.726	-0.285141
1.727	-0.286189
1.728	-0.284386
1.729	-0.279393
1.73	-0.273106
1.731	-0.267841
1.732	-0.264631
1.733	-0.263516
1.734	-0.265192
1.735	-0.271697
1.736	-0.285202
1.737	-0.305655
1.738	-0.328973
1.739	-0.348147
1.74	-0.357382
1.741	-0.355739
1.742	-0.347379
1.743	-0.338955
1.744	-0.335793
1.745	-0.338866
1.746	-0.344961
1.747	-0.34986
1.748	-0.351456
1.749	-0.350697
1.75	-0.350527
1.751	-0.353839
1.752	-0.361374
1.753	-0.369497
1.754	-0.368124
1.755	-0.341838
1.756	-0.276813
1.757	-0.171748
1.758	-0.047612
1.759	0.053372
1.76	0.087827
1.761	0.039878
1.762	-0.067546
1.763	-0.189341
1.764	-0.286233
1.765	-0.341857
1.766	-0.361925
1.767	-0.362701
1.768	-0.359033
1.769	-0.358506
1.77	-0.362082
1.771	-0.367472
1.772	-0.372235
1.773	-0.375632
1.774	-0.379291
1.775	-0.387055
1.776	-0.403447
1.777	-0.430165
1.778	-0.463103
1.779	-0.493584
1.78	-0.513492
1.781	-0.520004
1.782	-0.516503
1.783	-0.50964
1.784	-0.505064
1.785	-0.504792
1.786	-0.507314
1.787	-0.509288
1.788	-0.507723
1.789	-0.502052
1.79	-0.494565
1.791	-0.488572
1.792	-0.486229
1.793	-0.488089
1.794	-0.494472
1.795	-0.507223
1.796	-0.529462
1.797	-0.562469
1.798	-0.602633
1.799	-0.641836
1.8	-0.671365
1.801	-0.686778
1.802	-0.690427
1.803	-0.689507
1.804	-0.691242
1.805	-0.699255
1.806	-0.712998
1.807	-0.729198
1.808	-0.743952
1.809	-0.754354
1.81	-0.759142
1.811	-0.758904
1.812	-0.755936
1.813	-0.753433
1.814	-0.754725
1.815	-0.763513
1.816	-0.783674
1.817	-0.816817
1.818	-0.859307
1.819	-0.90235
1.82	-0.93624
1.821	-0.956015
1.822	-0.963763
1.823	-0.96573
1.824	-0.967675
1.825	-0.972247
1.826	-0.978419
1.827	-0.982334
1.828	-0.979888
1.829	-0.969616
1.83	-0.953412
1.831	-0.935032
1.832	-0.918124
1.833	-0.905266
1.834	-0.898604
1.835	-0.901151
1.836	-0.916377
1.837	-0.945558
1.838	-0.985475
1.839	-1.029004
1.84	-1.068408
1.841	-1.09897
1.842	-1.12025
1.843	-1.134638
1.844	-1.145339
1.845	-1.154868
1.846	-1.163823
1.847	-1.170928
1.848	-1.174756
1.849	-1.175225
1.85	-1.173573
1.851	-1.171325
1.852	-1.169197
1.853	-1.167007
1.854	-1.16519
1.855	-1.166599
1.856	-1.176285
1.857	-1.198641
1.858	-1.233545
1.859	-1.274397
1.86	-1.310597
1.861	-1.333594
1.862	-1.341844
1.863	-1.340905
1.864	-1.33916
1.865	-1.342321
1.866	-1.35054
1.867	-1.359792
1.868	-1.365452
1.869	-1.365043
1.87	-1.359283
1.871	-1.351787
1.872	-1.347348
1.873	-1.34846
1.874	-1.351204
1.875	-1.343677
1.876	-1.3099
1.877	-1.238769
1.878	-1.134785
1.879	-1.025266
1.88	-0.9545
1.881	-0.959697
1.882	-1.044532
1.883	-1.175704
1.884	-1.305559
1.885	-1.399158
1.886	-1.446145
1.887	-1.455708
1.888	-1.444702
1.889	-1.428207
1.89	-1.415582
1.891	-1.410239
1.892	-1.410981
1.893	-1.414618
1.894	-1.419282
1.895	-1.426378
1.896	-1.439913
1.897	-1.463789
1.898	-1.4983
1.899	-1.538146
1.9	-1.574296
1.901	-1.598887
1.902	-1.609529
1.903	-1.610037
1.904	-1.607156
1.905	-1.605782
1.906	-1.60663
1.907	-1.607591
1.908	-1.606172
1.909	-1.600774
1.91	-1.590952
1.911	-1.577392
1.912	-1.561935
1.913	-1.547568
1.914	-1.537935
1.915	-1.536468
1.916	-1.546076
1.917	-1.568907
1.918	-1.604231
1.919	-1.645611
1.92	-1.681999
1.921	-1.703866
1.922	-1.709126
1.923	-1.703473
1.924	-1.695225
1.925	-1.689557
1.926	-1.686663
1.927	-1.683691
1.928	-1.677504
1.929	-1.666423
1.93	-1.650676
1.931	-1.632034
1.932	-1.613437
1.933	-1.598643
1.934	-1.591284
1.935	-1.593898
1.936	-1.608018
1.937	-1.634191
1.938	-1.670554
1.939	-1.711616
1.94	-1.749598
1.941	-1.777974
1.942	-1.794576
1.943	-1.80178
1.944	-1.803762
1.945	-1.803399
1.946	-1.801038
1.947	-1.795069
1.948	-1.783345
1.949	-1.764801
1.95	-1.740421
1.951	-1.713039
1.952	-1.686444
1.953	-1.6644
1.954	-1.649929
1.955	-1.645536
1.956	-1.654141
1.957	-1.67851
1.958	-1.718178
1.959	-1.766706
1.96	-1.812985
1.961	-1.846862
1.962	-1.864704
1.963	-1.869963
1.964	-1.86882
1.965	-1.86566
1.966	-1.861676
1.967	-1.855869
1.968	-1.846425
1.969	-1.831597
1.97	-1.810242
1.971	-1.782665
1.972	-1.751627
1.973	-1.722341
1.974	-1.700916
1.975	-1.69252
1.976	-1.700348
1.977	-1.724724
1.978	-1.761839
1.979	-1.803339
1.98	-1.838392
1.981	-1.85837
1.982	-1.861235
1.983	-1.851782
1.984	-1.837707
1.985	-1.824922
1.986	-1.814872
1.987	-1.804772
1.988	-1.790468
1.989	-1.76974
1.99	-1.743754
1.991	-1.716508
1.992	-1.693114
1.993	-1.677192
1.994	-1.667622
1.995	-1.655995
1.996	-1.627302
1.997	-1.566304
1.998	-1.469357
1.999	-1.355866
2.0	-1.267482
2.001	-1.246571
2.002	-1.306182
2.003	-1.419287
2.004	-1.538114
2.005	-1.624274
2.006	-1.664592
2.007	-1.666922
2.008	-1.647399
2.009	-1.620417
2.01	-1.594278
2.011	-1.5713
2.012	-1.550505
2.013	-1.530815
2.014	-1.513189
2.015	-1.500941
2.016	-1.4983
2.017	-1.508205
2.018	-1.530008
2.019	-1.557614
2.02	-1.580404
2.021	-1.588574
2.022	-1.579203
2.023	-1.557516
2.024	-1.532579
2.025	-1.511422
2.026	-1.495873
2.027	-1.483515
2.028	-1.470652
2.029	-1.454398
2.03	-1.433397
2.031	-1.408077
2.032	-1.380545
2.033	-1.354026
2.034	-1.33233
2.035	-1.319269
2.036	-1.317556
2.037	-1.327745
2.038	-1.34755
2.039	-1.371434
2.04	-1.391502
2.041	-1.400561
2.042	-1.395739
2.043	-1.380011
2.044	-1.360302
2.045	-1.343125
2.046	-1.330758
2.047	-1.320878
2.048	-1.30944
2.049	-1.293933
2.05	-1.274578
2.051	-1.253324
2.052	-1.232242
2.053	-1.213068
2.054	-1.197843
2.055	-1.188893
2.056	-1.187794
2.057	-1.19477
2.058	-1.208472
2.059	-1.225202
2.06	-1.239031
2.061	-1.244447
2.062	-1.239823
2.063	-1.228409
2.064	-1.215646
2.065	-1.20522
2.066	-1.197551
2.067	-1.19127
2.068	-1.184589
2.069	-1.17485
2.07	-1.158571
2.071	-1.133894
2.072	-1.103018
2.073	-1.071503
2.074	-1.045218
2.075	-1.02825
2.076	-1.023295
2.077	-1.032296
2.078	-1.054734
2.079	-1.08515
2.08	-1.113828
2.081	-1.131475
2.082	-1.134485
2.083	-1.126325
2.084	-1.113727
2.085	-1.101436
2.086	-1.090405
2.087	-1.079739
2.088	-1.068824
2.089	-1.057444
2.09	-1.045037
2.091	-1.03084
2.092	-1.014831
2.093	-0.998111
2.094	-0.982483
2.095	-0.970552
2.096	-0.966306
2.097	-0.973637
2.098	-0.992474
2.099	-1.016633
2.1	-1.036604
2.101	-1.045169
2.102	-1.041387
2.103	-1.030324
2.104	-1.019126
2.105	-1.012305
2.106	-1.009367
2.107	-1.006014
2.108	-0.998001
2.109	-0.984797
2.11	-0.969867
2.111	-0.95769
2.112	-0.951097
2.113	-0.950268
2.114	-0.951093
2.115	-0.943324
2.116	-0.912753
2.117	-0.848523
2.118	-0.752331
2.119	-0.644865
2.12	-0.56267
2.121	-0.540567
2.122	-0.588581
2.123	-0.683947
2.124	-0.786815
2.125	-0.864804
2.126	-0.906438
2.127	-0.918082
2.128	-0.912584
2.129	-0.899908
2.13	-0.884786
2.131	-0.869699
2.132	-0.857671
2.133	-0.851537
2.134	-0.851622
2.135	-0.855948
2.136	-0.86398
2.137	-0.879155
2.138	-0.905033
2.139	-0.938531
2.14	-0.968832
2.141	-0.984215
2.142	-0.980963
2.143	-0.966598
2.144	-0.953479
2.145	-0.948447
2.146	-0.949384
2.147	-0.950566
2.148	-0.948639
2.149	-0.943721
2.15	-0.937107
2.151	-0.929036
2.152	-0.918681
2.153	-0.906144
2.154	-0.894291
2.155	-0.888093
2.156	-0.891471
2.157	-0.904795
2.158	-0.925069
2.159	-0.947117
2.16	-0.964924
2.161	-0.974086
2.162	-0.973996
2.163	-0.967472
2.164	-0.958697
2.165	-0.951401
2.166	-0.947353
2.167	-0.945351
2.168	-0.942234
2.169	-0.935517
2.17	-0.924855
2.171	-0.911364
2.172	-0.896579
2.173	-0.882507
2.174	-0.872163
2.175	-0.869098
2.176	-0.875607
2.177	-0.891269
2.178	-0.912964
2.179	-0.935514
2.18	-0.952735
2.181	-0.959854
2.182	-0.956085
2.183	-0.944823
2.184	-0.931271
2.185	-0.919584
2.186	-0.91129
2.187	-0.905414
2.188	-0.899646
2.189	-0.891273
2.19	-0.877604
2.191	-0.85691
2.192	-0.830069
2.193	-0.801438
2.194	-0.77765
2.195	-0.764918
2.196	-0.766685
2.197	-0.782906
2.198	-0.810359
2.199	-0.843007
2.2	-0.873219
2.201	-0.894688
2.202	-0.905071
2.203	-0.906099
2.204	-0.901632
2.205	-0.895305
2.206	-0.888747
2.207	-0.88137
2.208	-0.871786
2.209	-0.859251
2.21	-0.84388
2.211	-0.826118
2.212	-0.806581
2.213	-0.786722
2.214	-0.769623
2.215	-0.759339
2.216	-0.758778
2.217	-0.768062
2.218	-0.784075
2.219	-0.800819
2.22	-0.811405
2.221	-0.811496
2.222	-0.801528
2.223	-0.785918
2.224	-0.770103
2.225	-0.757359
2.226	-0.747555
2.227	-0.738739
2.228	-0.729515
2.229	-0.719608
2.23	-0.708971
2.231	-0.697418
2.232	-0.684648
2.233	-0.668843
2.234	-0.644057
2.235	-0.599943
2.236	-0.527184
2.237	-0.42747
2.238	-0.321004
2.239	-0.241934
2.24	-0.219267
2.241	-0.256901
2.242	-0.33131
2.243	-0.408258
2.244	-0.462486
2.245	-0.486282
2.246	-0.486101
2.247	-0.474183
2.248	-0.461027
2.249	-0.451507
2.25	-0.445123
2.251	-0.438841
2.252	-0.430283
2.253	-0.419537
2.254	-0.40894
2.255	-0.401571
2.256	-0.399739
2.257	-0.403887
2.258	-0.411937
2.259	-0.419748
2.26	-0.422947
2.261	-0.419049
2.262	-0.40853
2.263	-0.394288
2.264	-0.379778
2.265	-0.36708
2.266	-0.356388
2.267	-0.346812
2.268	-0.337323
2.269	-0.327429
2.27	-0.317334
2.271	-0.307408
2.272	-0.297667
2.273	-0.287945
2.274	-0.278364
2.275	-0.26978
2.276	-0.263921
2.277	-0.262542
2.278	-0.265804
2.279	-0.271319
2.28	-0.27481
2.281	-0.272302
2.282	-0.262588
2.283	-0.247895
2.284	-0.231961
2.285	-0.217636
2.286	-0.206268
2.287	-0.198193
2.288	-0.192845
2.289	-0.188613
2.29	-0.183208
2.291	-0.174663
2.292	-0.162519
2.293	-0.148186
2.294	-0.134018
2.295	-0.122274
2.296	-0.115034
2.297	-0.114025
2.298	-0.119224
2.299	-0.127406
2.3	-0.132797
2.301	-0.130268
2.302	-0.118616
2.303	-0.10082
2.304	-0.081535
2.305	-0.064807
2.306	-0.053129
2.307	-0.046833
2.308	-0.043918
2.309	-0.041061
2.31	-0.035182
2.311	-0.024513
2.312	-0.00892
2.313	0.010342
2.314	0.03115
2.315	0.050798
2.316	0.066127
2.317	0.074259
2.318	0.073975
2.319	0.066691
2.32	0.056192
2.321	0.047249
2.322	0.043949
2.323	0.0484
2.324	0.059963
2.325	0.075414
2.326	0.090676
2.327	0.103056
2.328	0.111939
2.329	0.118146
2.33	0.123364
2.331	0.129567
2.332	0.138046
2.333	0.148974
2.334	0.161999
2.335	0.176579
2.336	0.190965
2.337	0.201394
2.338	0.203768
2.339	0.197313
2.34	0.186684
2.341	0.179694
2.342	0.182405
2.343	0.195908
2.344	0.216523
2.345	0.238162
2.346	0.255361
2.347	0.265496
2.348	0.26916
2.349	0.269134
2.35	0.268779
2.351	0.270201
2.352	0.272996
2.353	0.274891
2.354	0.274625
2.355	0.275568
2.356	0.287649
2.357	0.325674
2.358	0.403373
2.359	0.523547
2.36	0.667195
2.361	0.792066
2.362	0.851665
2.363	0.825476
2.364	0.733299
2.365	0.620493
2.366	0.529223
2.367	0.479044
2.368	0.465852
2.369	0.472656
2.37	0.481956
2.371	0.483442
2.372	0.475608
2.373	0.463143
2.374	0.452717
2.375	0.449102
2.376	0.453003
2.377	0.4611
2.378	0.467967
2.379	0.469004
2.38	0.463071
2.381	0.453478
2.382	0.446432
2.383	0.447225
2.384	0.456758
2.385	0.471321
2.386	0.48537
2.387	0.494429
2.388	0.496651
2.389	0.49333
2.39	0.48818
2.391	0.485147
2.392	0.486128
2.393	0.490679
2.394	0.497706
2.395	0.506606
2.396	0.51618
2.397	0.523197
2.398	0.523618
2.399	0.516163
2.4	0.504607
2.401	0.496166
2.402	0.497173
2.403	0.509367
2.404	0.529384
2.405	0.551223
2.406	0.569228
2.407	0.580014
2.408	0.583492
2.409	0.582473
2.41	0.580584
2.411	0.580164
2.412	0.581782
2.413	0.585159
2.414	0.590336
2.415	0.597877
2.416	0.607697
2.417	0.617865
2.418	0.625135
2.419	0.626953
2.42	0.623253
2.421	0.616911
2.422	0.612527
2.423	0.614296
2.424	0.624163
2.425	0.640845
2.426	0.660119
2.427	0.676891
2.428	0.687935
2.429	0.692952
2.43	0.693491
2.431	0.691832
2.432	0.690913
2.433	0.694088
2.434	0.703906
2.435	0.720616
2.436	0.741416
2.437	0.761107
2.438	0.774213
2.439	0.777406
2.44	0.770905
2.441	0.758422
2.442	0.745818
2.443	0.73891
2.444	0.741051
2.445	0.751329
2.446	0.764815
2.447	0.775655
2.448	0.780716
2.449	0.780762
2.45	0.779082
2.451	0.779157
2.452	0.782644
2.453	0.789062
2.454	0.797353
2.455	0.807121
2.456	0.817872
2.457	0.827806
2.458	0.834193
2.459	0.83495
2.46	0.829969
2.461	0.821475
2.462	0.81341
2.463	0.810289
2.464	0.815374
2.465	0.828327
2.466	0.844605
2.467	0.858262
2.468	0.865777
2.469	0.867456
2.47	0.866001
2.471	0.864133
2.472	0.863046
2.473	0.862478
2.474	0.861783
2.475	0.860838
2.476	0.861401
2.477	0.870015
2.478	0.899716
2.479	0.966247
2.48	1.078409
2.481	1.226043
2.482	1.373721
2.483	1.472314
2.484	1.487892
2.485	1.424929
2.486	1.322183
2.487	1.226078
2.488	1.165115
2.489	1.142406
2.49	1.144584
2.491	1.155056
2.492	1.162555
2.493	1.163338
2.494	1.159348
2.495	1.154648
2.496	1.152099
2.497	1.151902
2.498	1.151705
2.499	1.147836
2.5	1.13803
2.501	1.12401
2.502	1.111256
2.503	1.105996
2.504	1.111611
2.505	1.126535
2.506	1.144804
2.507	1.159124
2.508	1.164654
2.509	1.161322
2.51	1.15324
2.511	1.145523
2.512	1.141137
2.513	1.140397
2.514	1.142502
2.515	1.146609
2.516	1.151937
2.517	1.157658
2.518	1.162457
2.519	1.164047
2.52	1.159944
2.521	1.149618
2.522	1.136225
2.523	1.125792
2.524	1.123716
2.525	1.131313
2.526	1.14537
2.527	1.160612
2.528	1.172676
2.529	1.179496
2.53	1.180913
2.531	1.177816
2.532	1.171831
2.533	1.165243
2.534	1.160348
2.535	1.158524
2.536	1.160106
2.537	1.16463
2.538	1.170291
2.539	1.173608
2.54	1.170936
2.541	1.161186
2.542	1.147556
2.543	1.136543
2.544	1.134308
2.545	1.142815
2.546	1.158658
2.547	1.175276
2.548	1.186866
2.549	1.191266
2.55	1.190105
2.551	1.186896
2.552	1.18499
2.553	1.186433
2.554	1.191823
2.555	1.200759
2.556	1.211956
2.557	1.222833
2.558	1.229822
2.559	1.230033
2.56	1.222754
2.561	1.209541
2.562	1.193602
2.563	1.179253
2.564	1.170855
2.565	1.170807
2.566	1.1779
2.567	1.187911
2.568	1.196183
2.569	1.199921
2.57	1.198788
2.571	1.194298
2.572	1.188739
2.573	1.184119
2.574	1.181709
2.575	1.182388
2.576	1.186868
2.577	1.195017
2.578	1.204898
2.579	1.212575
2.58	1.213337
2.581	1.204508
2.582	1.18814
2.583	1.171033
2.584	1.161477
2.585	1.164621
2.586	1.179418
2.587	1.199286
2.588	1.216154
2.589	1.224885
2.59	1.225158
2.591	1.220262
2.592	1.214235
2.593	1.209315
2.594	1.205216
2.595	1.200138
2.596	1.192389
2.597	1.182653
2.598	1.177231
2.599	1.189741
2.6	1.237508
2.601	1.331809
2.602	1.464897
2.603	1.602409
2.604	1.693986
2.605	1.70253
2.606	1.629389
2.607	1.512199
2.608	1.398613
2.609	1.319879
2.61	1.282293
2.611	1.274805
2.612	1.280991
2.613	1.287462
2.614	1.287457
2.615	1.280616
2.616	1.270219
2.617	1.259898
2.618	1.25141
2.619	1.243726
2.62	1.233693
2.621	1.218446
2.622	1.198207
2.623	1.177456
2.624	1.163261
2.625	1.161233
2.626	1.171707
2.627	1.18937
2.628	1.20665
2.629	1.217875
2.63	1.221193
2.631	1.217993
2.632	1.211273
2.633	1.204208
2.634	1.199212
2.635	1.197325
2.636	1.198261
2.637	1.201399
2.638	1.206135
2.639	1.210491
2.64	1.210179
2.641	1.200671
2.642	1.181256
2.643	1.157369
2.644	1.138469
2.645	1.132448
2.646	1.140711
2.647	1.157635
2.648	1.174566
2.649	1.185293
2.65	1.188967
2.651	1.188625
2.652	1.187602
2.653	1.187391
2.654	1.187865
2.655	1.18826
2.656	1.187959
2.657	1.187032
2.658	1.185801
2.659	1.18379
2.66	1.179718
2.661	1.172333
2.662	1.161316
2.663	1.148509
2.664	1.13819
2.665	1.134622
2.666	1.138247
2.667	1.14432
2.668	1.145786
2.669	1.138015
2.67	1.121329
2.671	1.099734
2.672	1.077922
2.673	1.059315
2.674	1.045676
2.675	1.03732
2.676	1.033432
2.677	1.032356
2.678	1.031614
2.679	1.027911
2.68	1.017616
2.681	0.997761
2.682	0.967696
2.683	0.930888
2.684	0.894751
2.685	0.867321
2.686	0.853161
2.687	0.851675
2.688	0.858318
2.689	0.867086
2.69	0.872777
2.691	0.872484
2.692	0.866255
2.693	0.856579
2.694	0.846659
2.695	0.83863
2.696	0.833047
2.697	0.82935
2.698	0.826175
2.699	0.821437
2.7	0.812492
2.701	0.796707
2.702	0.773071
2.703	0.744287
2.704	0.716896
2.705	0.698346
2.706	0.692815
2.707	0.698661
2.708	0.709348
2.709	0.717429
2.71	0.718737
2.711	0.713909
2.712	0.70658
2.713	0.699956
2.714	0.694493
2.715	0.688111
2.716	0.677911
2.717	0.661984
2.718	0.641721
2.719	0.624626
2.72	0.625004
2.721	0.659742
2.722	0.739278
2.723	0.856108
2.724	0.977459
2.725	1.054732
2.726	1.051938
2.727	0.971115
2.728	0.850415
2.729	0.737461
2.73	0.662293
2.731	0.628702
2.732	0.62276
2.733	0.626373
2.734	0.626646
2.735	0.618664
2.736	0.603579
2.737	0.58517
2.738	0.567091
2.739	0.550828
2.74	0.534255
2.741	0.512381
2.742	0.481226
2.743	0.44233
2.744	0.403694
2.745	0.375771
2.746	0.365377
2.747	0.372061
2.748	0.38918
2.749	0.407952
2.75	0.421339
2.751	0.426284
2.752	0.42385
2.753	0.417238
2.754	0.409274
2.755	0.401276
2.756	0.393115
2.757	0.383552
2.758	0.370933
2.759	0.354135
2.76	0.332927
2.761	0.307487
2.762	0.27824
2.763	0.247015
2.764	0.21845
2.765	0.199217
2.766	0.194343
2.767	0.203437
2.768	0.220643
2.769	0.238426
2.77	0.251776
2.771	0.2597
2.772	0.263689
2.773	0.265286
2.774	0.264969
2.775	0.262509
2.776	0.257547
2.777	0.25001
2.778	0.240444
2.779	0.229614
2.78	0.217279
2.781	0.201461
2.782	0.179602
2.783	0.151562
2.784	0.122005
2.785	0.099186
2.786	0.090329
2.787	0.097394
2.788	0.116351
2.789	0.139602
2.79	0.159509
2.791	0.17148
2.792	0.175357
2.793	0.174418
2.794	0.172833
2.795	0.173249
2.796	0.17591
2.797	0.179596
2.798	0.182911
2.799	0.184275
2.8	0.181026
2.801	0.169407
2.802	0.146537
2.803	0.113672
2.804	0.07783
2.805	0.049061
2.806	0.034907
2.807	0.036588
2.808	0.049248
2.809	0.065322
2.81	0.078752
2.811	0.087434
2.812	0.092472
2.813	0.095588
2.814	0.097382
2.815	0.097457
2.816	0.095342
2.817	0.091126
2.818	0.085308
2.819	0.078262
2.82	0.069966
2.821	0.059484
2.822	0.044737
2.823	0.024529
2.824	0.001507
2.825	-0.017807
2.826	-0.026479
2.827	-0.021017
2.828	-0.00337
2.829	0.019593
2.83	0.039473
2.831	0.050967
2.832	0.054157
2.833	0.052864
2.834	0.051023
2.835	0.049963
2.836	0.047997
2.837	0.042086
2.838	0.030603
2.839	0.016216
2.84	0.007766
2.841	0.019532
2.842	0.066736
2.843	0.157264
2.844	0.280569
2.845	0.401268
2.846	0.471616
2.847	0.461664
2.848	0.380877
2.849	0.270155
2.85	0.173366
2.851	0.11381
2.852	0.090454
2.853	0.088927
2.854	0.094052
2.855	0.096265
2.856	0.09229
2.857	0.083268
2.858	0.072209
2.859	0.06145
2.86	0.050769
2.861	0.037098
2.862	0.016649
2.863	-0.011448
2.864	-0.042872
2.865	-0.069351
2.866	-0.082787
2.867	-0.079724
2.868	-0.063348
2.869	-0.041465
2.87	-0.021837
2.871	-0.008426
2.872	-0.000931
2.873	0.003119
2.874	0.005951
2.875	0.008186
2.876	0.008824
2.877	0.006302
2.878	-0.00014
2.879	-0.009819
2.88	-0.021375
2.881	-0.034616
2.882	-0.051384
2.883	-0.073655
2.884	-0.100149
2.885	-0.124808
2.886	-0.139267
2.887	-0.137852
2.888	-0.121167
2.889	-0.095694
2.89	-0.070334
2.891	-0.052262
2.892	-0.044086
2.893	-0.043655
2.894	-0.046605
2.895	-0.049605
2.896	-0.051702
2.897	-0.053336
2.898	-0.054936
2.899	-0.056923
2.9	-0.060907
2.901	-0.07018
2.902	-0.088111
2.903	-0.115054
2.904	-0.146306
2.905	-0.173178
2.906	-0.186955
2.907	-0.183402
2.908	-0.164872
2.909	-0.138893
2.91	-0.114561
2.911	-0.09869
2.912	-0.09328
2.913	-0.095502
2.914	-0.100074
2.915	-0.102289
2.916	-0.099996
2.917	-0.093982
2.918	-0.086969
2.919	-0.081858
2.92	-0.080551
2.921	-0.08447
2.922	-0.095552
2.923	-0.115357
2.924	-0.142318
2.925	-0.170257
2.926	-0.190703
2.927	-0.197592
2.928	-0.190348
2.929	-0.173324
2.93	-0.152859
2.931	-0.134365
2.932	-0.120854
2.933	-0.113
2.934	-0.109916
2.935	-0.109957
2.936	-0.11155
2.937	-0.11378
2.938	-0.1162
2.939	-0.118519
2.94	-0.121158
2.941	-0.126221
2.942	-0.13723
2.943	-0.156522
2.944	-0.181915
2.945	-0.206203
2.946	-0.220658
2.947	-0.219713
2.948	-0.203628
2.949	-0.178321
2.95	-0.152745
2.951	-0.134715
2.952	-0.127221
2.953	-0.127717
2.954	-0.130925
2.955	-0.132962
2.956	-0.133906
2.957	-0.137142
2.958	-0.146171
2.959	-0.16094
2.96	-0.175126
2.961	-0.175606
2.962	-0.145732
2.963	-0.072713
2.964	0.042073
2.965	0.173681
2.966	0.276299
2.967	0.306886
2.968	0.254901
2.969	0.14968
2.97	0.039103
2.971	-0.039593
2.972	-0.074884
2.973	-0.077
2.974	-0.064493
2.975	-0.052833
2.976	-0.049771
2.977	-0.055847
2.978	-0.067344
2.979	-0.079961
2.98	-0.091424
2.981	-0.10244
2.982	-0.116277
2.983	-0.136488
2.984	-0.163252
2.985	-0.191225
2.986	-0.211458
2.987	-0.216584
2.988	-0.20552
2.989	-0.184157
2.99	-0.161634
2.991	-0.145153
2.992	-0.136983
2.993	-0.13491
2.994	-0.134907
2.995	-0.134106
2.996	-0.132219
2.997	-0.130448
2.998	-0.129479
2.999	-0.129114
3.0	-0.12987
3.001	-0.134465
3.002	-0.146911
3.003	-0.169234
3.004	-0.198561
3.005	-0.227284
3.006	-0.246147
3.007	-0.248361
3.008	-0.232956
3.009	-0.205766
3.01	-0.176917
3.011	-0.15572
3.012	-0.146155
3.013	-0.145985
3.014	-0.149695
3.015	-0.152678
3.016	-0.153363
3.017	-0.152427
3.018	-0.151171
3.019	-0.150727
3.02	-0.152033
3.021	-0.156464
3.022	-0.166196
3.023	-0.182876
3.024	-0.205281
3.025	-0.228297
3.026	-0.244661
3.027	-0.248855
3.028	-0.240365
3.029	-0.223677
3.03	-0.205269
3.031	-0.190201
3.032	-0.180435
3.033	-0.175142
3.034	-0.172063
3.035	-0.168918
3.036	-0.164317
3.037	-0.158216
3.038	-0.151919
3.039	-0.147192
3.04	-0.145186
3.041	-0.146858
3.042	-0.154387
3.043	-0.170679
3.044	-0.196195
3.045	-0.226225
3.046	-0.252012
3.047	-0.265528
3.048	-0.264085
3.049	-0.251382
3.05	-0.234751
3.051	-0.220871
3.052	-0.212789
3.053	-0.209786
3.054	-0.209396
3.055	-0.209449
3.056	-0.208594
3.057	-0.205989
3.058	-0.201349
3.059	-0.195233
3.06	-0.189437
3.061	-0.187391
3.062	-0.193431
3.063	-0.210253
3.064	-0.236119
3.065	-0.264319
3.066	-0.285867
3.067	-0.294061
3.068	-0.288055
3.069	-0.273032
3.07	-0.256843
3.071	-0.245529
3.072	-0.240767
3.073	-0.24049
3.074	-0.2415
3.075	-0.241834
3.076	-0.241884
3.077	-0.244542
3.078	-0.253766
3.079	-0.270849
3.08	-0.290114
3.081	-0.297607
3.082	-0.275022
3.083	-0.208068
3.084	-0.096651
3.085	0.036843
3.086	0.149075
3.087	0.195215
3.088	0.15775
3.089	0.059017
3.09	-0.055008
3.091	-0.143548
3.092	-0.189458
3.093	-0.199198
3.094	-0.190861
3.095	-0.181176
3.096	-0.178786
3.097	-0.184419
3.098	-0.194333
3.099	-0.204047
3.1	-0.211483
3.101	-0.218675
3.102	-0.230787
3.103	-0.25221
3.104	-0.282148
3.105	-0.313341
3.106	-0.335252
3.107	-0.339649
3.108	-0.325095
3.109	-0.297949
3.11	-0.269297
3.111	-0.24914
3.112	-0.241279
3.113	-0.242567
3.114	-0.246601
3.115	-0.248595
3.116	-0.247957
3.117	-0.246986
3.118	-0.247539
3.119	-0.249641
3.12	-0.253235
3.121	-0.260301
3.122	-0.274486
3.123	-0.298117
3.124	-0.328944
3.125	-0.35941
3.126	-0.37963
3.127	-0.382781
3.128	-0.369319
3.129	-0.346491
3.13	-0.323415
3.131	-0.305936
3.132	-0.295075
3.133	-0.289012
3.134	-0.285779
3.135	-0.28442
3.136	-0.284667
3.137	-0.286331
3.138	-0.289247
3.139	-0.293321
3.14	-0.298015
3.141	-0.302786
3.142	-0.308839
3.143	-0.319127
3.144	-0.335265
3.145	-0.354498
3.146	-0.370297
3.147	-0.376274
3.148	-0.369907
3.149	-0.353595
3.15	-0.333089
3.151	-0.314619
3.152	-0.302277
3.153	-0.296758
3.154	-0.295666
3.155	-0.295068
3.156	-0.291673
3.157	-0.284371
3.158	-0.274126
3.159	-0.262847
3.16	-0.253018
3.161	-0.248625
3.162	-0.254911
3.163	-0.275041
3.164	-0.306488
3.165	-0.341095
3.166	-0.368873
3.167	-0.382555
3.168	-0.379894
3.169	-0.363141
3.17	-0.338001
3.171	-0.312889
3.172	-0.296299
3.173	-0.292284
3.174	-0.298119
3.175	-0.30671
3.176	-0.311512
3.177	-0.31043
3.178	-0.306368
3.179	-0.303662
3.18	-0.3037
3.181	-0.305391
3.182	-0.310009
3.183	-0.322485
3.184	-0.345336
3.185	-0.372868
3.186	-0.393968
3.187	-0.400567
3.188	-0.392945
3.189	-0.377689
3.19	-0.361921
3.191	-0.350083
3.192	-0.344016
3.193	-0.343023
3.194	-0.344272
3.195	-0.345352
3.196	-0.346813
3.197	-0.351921
3.198	-0.363996
3.199	-0.382763
3.2	-0.401626
3.201	-0.408183
3.202	-0.387979
3.203	-0.330467
3.204	-0.237578
3.205	-0.131112
3.206	-0.048504
3.207	-0.023171
3.208	-0.062918
3.209	-0.145604
3.21	-0.235428
3.211	-0.304077
3.212	-0.34096
3.213	-0.350952
3.214	-0.346582
3.215	-0.340121
3.216	-0.338437
3.217	-0.342189
3.218	-0.348507
3.219	-0.354382
3.22	-0.359091
3.221	-0.365189
3.222	-0.377185
3.223	-0.398067
3.224	-0.426183
3.225	-0.455006
3.226	-0.47603
3.227	-0.483235
3.228	-0.47642
3.229	-0.460883
3.23	-0.443608
3.231	-0.42933
3.232	-0.419466
3.233	-0.413518
3.234	-0.410595
3.235	-0.409849
3.236	-0.410565
3.237	-0.412555
3.238	-0.416322
3.239	-0.422448
3.24	-0.430817
3.241	-0.440879
3.242	-0.452908
3.243	-0.468211
3.244	-0.487063
3.245	-0.506386
3.246	-0.520322
3.247	-0.523998
3.248	-0.516998
3.249	-0.503246
3.25	-0.487906
3.251	-0.474452
3.252	-0.463913
3.253	-0.455851
3.254	-0.449528
3.255	-0.444396
3.256	-0.440135
3.257	-0.436499
3.258	-0.433051
3.259	-0.429377
3.26	-0.426065
3.261	-0.425382
3.262	-0.430445
3.263	-0.443011
3.264	-0.461409
3.265	-0.480288
3.266	-0.492832
3.267	-0.494207
3.268	-0.483792
3.269	-0.465037
3.27	-0.443744
3.271	-0.425775
3.272	-0.414681
3.273	-0.41036
3.274	-0.409677
3.275	-0.408567
3.276	-0.404087
3.277	-0.395187
3.278	-0.382532
3.279	-0.3684
3.28	-0.3565
3.281	-0.351171
3.282	-0.35603
3.283	-0.372208
3.284	-0.396758
3.285	-0.422758
3.286	-0.44207
3.287	-0.449413
3.288	-0.444625
3.289	-0.431496
3.29	-0.414648
3.291	-0.397195
3.292	-0.38055
3.293	-0.365574
3.294	-0.353341
3.295	-0.344708
3.296	-0.339615
3.297	-0.337133
3.298	-0.336111
3.299	-0.335691
3.3	-0.335387
3.301	-0.335449
3.302	-0.337627
3.303	-0.344423
3.304	-0.356239
3.305	-0.369446
3.306	-0.377938
3.307	-0.37681
3.308	-0.365227
3.309	-0.346754
3.31	-0.327235
3.311	-0.311751
3.312	-0.302507
3.313	-0.298581
3.314	-0.297417
3.315	-0.297018
3.316	-0.297347
3.317	-0.29983
3.318	-0.3052
3.319	-0.310745
3.32	-0.308287
3.321	-0.285029
3.322	-0.228848
3.323	-0.136883
3.324	-0.023978
3.325	0.075991
3.326	0.124235
3.327	0.101748
3.328	0.022929
3.329	-0.075059
3.33	-0.156078
3.331	-0.20233
3.332	-0.216234
3.333	-0.211241
3.334	-0.201226
3.335	-0.194684
3.336	-0.194196
3.337	-0.198565
3.338	-0.205203
3.339	-0.2118
3.34	-0.217211
3.341	-0.221962
3.342	-0.228181
3.343	-0.238207
3.344	-0.252315
3.345	-0.267488
3.346	-0.278626
3.347	-0.281619
3.348	-0.276034
3.349	-0.265017
3.35	-0.252561
3.351	-0.241032
3.352	-0.231041
3.353	-0.222764
3.354	-0.216719
3.355	-0.213363
3.356	-0.212375
3.357	-0.212581
3.358	-0.212771
3.359	-0.212625
3.36	-0.212824
3.361	-0.214636
3.362	-0.21958
3.363	-0.228811
3.364	-0.242117
3.365	-0.257301
3.366	-0.270517
3.367	-0.27772
3.368	-0.276512
3.369	-0.26708
3.37	-0.252012
3.371	-0.235528
3.372	-0.222032
3.373	-0.214089
3.374	-0.21134
3.375	-0.21146
3.376	-0.211893
3.377	-0.21081
3.378	-0.207488
3.379	-0.202486
3.38	-0.197454
3.381	-0.194642
3.382	-0.196198
3.383	-0.203188
3.384	-0.214781
3.385	-0.228186
3.386	-0.239477
3.387	-0.245276
3.388	-0.244309
3.389	-0.237499
3.39	-0.226785
3.391	-0.214152
3.392	-0.201378
3.393	-0.190041
3.394	-0.181389
3.395	-0.175882
3.396	-0.172769
3.397	-0.170601
3.398	-0.168402
3.399	-0.165947
3.4	-0.16279
3.401	-0.157941
3.402	-0.151378
3.403	-0.145543
3.404	-0.144378
3.405	-0.150279
3.406	-0.162073
3.407	-0.175898
3.408	-0.187383
3.409	-0.193164
3.41	-0.191799
3.411	-0.184329
3.412	-0.173825
3.413	-0.163776
3.414	-0.156324
3.415	-0.151575
3.416	-0.148308
3.417	-0.145277
3.418	-0.141931
3.419	-0.138228
3.42	-0.134372
3.421	-0.13104
3.422	-0.129583
3.423	-0.131534
3.424	-0.137557
3.425	-0.146724
3.426	-0.156702
3.427	-0.164402
3.428	-0.166614
3.429	-0.161111
3.43	-0.148404
3.431	-0.132507
3.432	-0.119073
3.433	-0.111967
3.434	-0.111077
3.435	-0.112762
3.436	-0.11261
3.437	-0.108765
3.438	-0.103325
3.439	-0.100789
3.44	-0.105034
3.441	-0.116426
3.442	-0.129502
3.443	-0.131797
3.444	-0.105612
3.445	-0.035018
3.446	0.08184
3.447	0.221276
3.448	0.33619
3.449	0.379465
3.45	0.335121
3.451	0.229593
3.452	0.11222
3.453	0.023889
3.454	-0.02062
3.455	-0.029722
3.456	-0.021667
3.457	-0.012382
3.458	-0.009793
3.459	-0.014345
3.46	-0.022723
3.461	-0.031587
3.462	-0.039678
3.463	-0.04801
3.464	-0.058545
3.465	-0.072536
3.466	-0.089499
3.467	-0.106772
3.468	-0.119889
3.469	-0.124416
3.47	-0.118589
3.471	-0.104718
3.472	-0.088054
3.473	-0.073932
3.474	-0.065196
3.475	-0.061572
3.476	-0.061013
3.477	-0.061344
3.478	-0.061034
3.479	-0.059575
3.48	-0.057597
3.481	-0.056369
3.482	-0.05711
3.483	-0.060762
3.484	-0.067987
3.485	-0.078851
3.486	-0.092355
3.487	-0.106214
3.488	-0.117073
3.489	-0.121527
3.49	-0.11786
3.491	-0.107194
3.492	-0.092886
3.493	-0.078685
3.494	-0.067045
3.495	-0.058659
3.496	-0.053178
3.497	-0.050059
3.498	-0.048852
3.499	-0.048992
3.5	-0.049384
3.501	-0.048502
3.502	-0.045613
3.503	-0.041914
3.504	-0.040175
3.505	-0.043236
3.506	-0.052473
3.507	-0.066902
3.508	-0.083157
3.509	-0.096308
3.51	-0.101576
3.511	-0.096669
3.512	-0.083356
3.513	-0.066642
3.514	-0.051798
3.515	-0.041632
3.516	-0.035963
3.517	-0.032802
3.518	-0.029759
3.519	-0.024892
3.52	-0.017145
3.521	-0.006716
3.522	0.004876
3.523	0.015323
3.524	0.022095
3.525	0.022812
3.526	0.01601
3.527	0.002324
3.528	-0.014821
3.529	-0.030009
3.53	-0.038323
3.531	-0.038114
3.532	-0.031689
3.533	-0.023134
3.534	-0.015409
3.535	-0.009366
3.536	-0.004513
3.537	0.000113
3.538	0.005229
3.539	0.010756
3.54	0.015963
3.541	0.020123
3.542	0.023072
3.543	0.025237
3.544	0.026844
3.545	0.026921
3.546	0.02342
3.547	0.014742
3.548	0.001623
3.549	-0.012039
3.55	-0.020418
3.551	-0.01876
3.552	-0.006355
3.553	0.012655
3.554	0.031477
3.555	0.04467
3.556	0.051004
3.557	0.052755
3.558	0.052568
3.559	0.051453
3.56	0.049094
3.561	0.04472
3.562	0.037456
3.563	0.027611
3.564	0.020011
3.565	0.026832
3.566	0.065389
3.567	0.149141
3.568	0.274916
3.569	0.413989
3.57	0.518288
3.571	0.545932
3.572	0.489411
3.573	0.38043
3.574	0.267043
3.575	0.185123
3.576	0.145455
3.577	0.138569
3.578	0.147366
3.579	0.157734
3.58	0.162548
3.581	0.160324
3.582	0.152598
3.583	0.14217
3.584	0.131778
3.585	0.122558
3.586	0.113172
3.587	0.100934
3.588	0.084704
3.589	0.067165
3.59	0.054142
3.591	0.051068
3.592	0.059328
3.593	0.075292
3.594	0.092696
3.595	0.106428
3.596	0.114734
3.597	0.118581
3.598	0.11977
3.599	0.119685
3.6	0.119028
3.601	0.118221
3.602	0.117801
3.603	0.118261
3.604	0.119566
3.605	0.12072
3.606	0.119574
3.607	0.113348
3.608	0.100457
3.609	0.082796
3.61	0.06618
3.611	0.057613
3.612	0.06104
3.613	0.074988
3.614	0.093918
3.615	0.111767
3.616	0.124632
3.617	0.131424
3.618	0.133319
3.619	0.132619
3.62	0.131519
3.621	0.131378
3.622	0.132441
3.623	0.133969
3.624	0.134842
3.625	0.134006
3.626	0.130256
3.627	0.122275
3.628	0.10981
3.629	0.095073
3.63	0.082523
3.631	0.076613
3.632	0.079238
3.633	0.089014
3.634	0.102489
3.635	0.115734
3.636	0.12565
3.637	0.131363
3.638	0.134842
3.639	0.139284
3.64	0.146561
3.641	0.156334
3.642	0.166935
3.643	0.176529
3.644	0.183772
3.645	0.187713
3.646	0.18713
3.647	0.180344
3.648	0.166248
3.649	0.146
3.65	0.123871
3.651	0.105884
3.652	0.096781
3.653	0.097763
3.654	0.10658
3.655	0.119263
3.656	0.131969
3.657	0.142059
3.658	0.14823
3.659	0.15031
3.66	0.149469
3.661	0.148223
3.662	0.149135
3.663	0.153146
3.664	0.159263
3.665	0.165435
3.666	0.169184
3.667	0.167705
3.668	0.158583
3.669	0.141838
3.67	0.12176
3.671	0.105892
3.672	0.100878
3.673	0.108423
3.674	0.124601
3.675	0.142606
3.676	0.156764
3.677	0.165143
3.678	0.169238
3.679	0.171734
3.68	0.174417
3.681	0.177114
3.682	0.177706
3.683	0.173364
3.684	0.162876
3.685	0.149592
3.686	0.14388
3.687	0.162409
3.688	0.22171
3.689	0.326941
3.69	0.460823
3.691	0.582003
3.692	0.642369
3.693	0.617266
3.694	0.523039
3.695	0.4048
3.696	0.306952
3.697	0.251325
3.698	0.234434
3.699	0.238839
3.7	0.247054
3.701	0.249284
3.702	0.243756
3.703	0.233312
3.704	0.221804
3.705	0.2117
3.706	0.202921
3.707	0.192804
3.708	0.177596
3.709	0.155441
3.71	0.129156
3.711	0.106168
3.712	0.094793
3.713	0.099214
3.714	0.116823
3.715	0.139973
3.716	0.16061
3.717	0.173982
3.718	0.17929
3.719	0.178386
3.72	0.174281
3.721	0.169879
3.722	0.166943
3.723	0.165715
3.724	0.165455
3.725	0.165213
3.726	0.163899
3.727	0.159718
3.728	0.150285
3.729	0.134383
3.73	0.114121
3.731	0.095083
3.732	0.083606
3.733	0.083205
3.734	0.092884
3.735	0.108136
3.736	0.123473
3.737	0.135024
3.738	0.142061
3.739	0.146365
3.74	0.149712
3.741	0.151969
3.742	0.151728
3.743	0.148273
3.744	0.142694
3.745	0.137173
3.746	0.133036
3.747	0.129261
3.748	0.123094
3.749	0.112513
3.75	0.098234
3.751	0.083615
3.752	0.073095
3.753	0.070374
3.754	0.076835
3.755	0.090671
3.756	0.107283
3.757	0.121232
3.758	0.128931
3.759	0.130181
3.76	0.127636
3.761	0.125147
3.762	0.125972
3.763	0.131412
3.764	0.140606
3.765	0.151487
3.766	0.161455
3.767	0.167036
3.768	0.164153
3.769	0.150394
3.77	0.127673
3.771	0.102438
3.772	0.082757
3.773	0.074265
3.774	0.077555
3.775	0.088439
3.776	0.100574
3.777	0.108665
3.778	0.110558
3.779	0.107394
3.78	0.10229
3.781	0.098488
3.782	0.097535
3.783	0.098584
3.784	0.099866
3.785	0.100755
3.786	0.10168
3.787	0.102179
3.788	0.099924
3.789	0.092167
3.79	0.078228
3.791	0.060918
3.792	0.045849
3.793	0.038981
3.794	0.043632
3.795	0.058444
3.796	0.077708
3.797	0.094424
3.798	0.104255
3.799	0.107304
3.8	0.106648
3.801	0.105394
3.802	0.104446
3.803	0.102148
3.804	0.095834
3.805	0.084198
3.806	0.069627
3.807	0.060304
3.808	0.070495
3.809	0.116256
3.81	0.206176
3.811	0.330237
3.812	0.454419
3.813	0.531937
3.814	0.530921
3.815	0.456752
3.816	0.347316
3.817	0.246766
3.818	0.181677
3.819	0.154616
3.82	0.152732
3.821	0.16037
3.822	0.166745
3.823	0.167221
3.824	0.161686
3.825	0.152542
3.826	0.142576
3.827	0.132987
3.828	0.122438
3.829	0.107878
3.83	0.087147
3.831	0.061793
3.832	0.037656
3.833	0.022289
3.834	0.020677
3.835	0.032084
3.836	0.050403
3.837	0.067969
3.838	0.079962
3.839	0.086257
3.84	0.089776
3.841	0.093068
3.842	0.096132
3.843	0.097277
3.844	0.095574
3.845	0.09194
3.846	0.087993
3.847	0.084286
3.848	0.0795
3.849	0.071159
3.85	0.057426
3.851	0.03886
3.852	0.019161
3.853	0.004285
3.854	-0.000211
3.855	0.007606
3.856	0.024623
3.857	0.044378
3.858	0.060524
3.859	0.069642
3.86	0.071996
3.861	0.0703
3.862	0.067612
3.863	0.065727
3.864	0.064832
3.865	0.06433
3.866	0.063827
3.867	0.06277
3.868	0.059137
3.869	0.049822
3.87	0.033466
3.871	0.012864
3.872	-0.00571
3.873	-0.015664
3.874	-0.013308
3.875	0.000587
3.876	0.021174
3.877	0.041538
3.878	0.055615
3.879	0.060725
3.88	0.058469
3.881	0.053649
3.882	0.051526
3.883	0.054769
3.884	0.062298
3.885	0.071015
3.886	0.078462
3.887	0.083389
3.888	0.08432
3.889	0.079079
3.89	0.066221
3.891	0.046625
3.892	0.024
3.893	0.004185
3.894	-0.006953
3.895	-0.006426
3.896	0.004069
3.897	0.019178
3.898	0.033195
3.899	0.042874
3.9	0.047643
3.901	0.048157
3.902	0.045309
3.903	0.040233
3.904	0.034544
3.905	0.030152
3.906	0.028493
3.907	0.029513
3.908	0.031137
3.909	0.029814
3.91	0.022136
3.911	0.007138
3.912	-0.011927
3.913	-0.028053
3.914	-0.033753
3.915	-0.025447
3.916	-0.005984
3.917	0.016673
3.918	0.033802
3.919	0.040527
3.92	0.037935
3.921	0.031491
3.922	0.026722
3.923	0.025286
3.924	0.024534
3.925	0.02051
3.926	0.011397
3.927	-0.000407
3.928	-0.006871
3.929	0.00596
3.93	0.054199
3.931	0.146666
3.932	0.272832
3.933	0.397345
3.934	0.47265
3.935	0.467958
3.936	0.391103
3.937	0.282061
3.938	0.185427
3.939	0.126423
3.94	0.105022
3.941	0.105477
3.942	0.110252
3.943	0.108884
3.944	0.09947
3.945	0.085681
3.946	0.072512
3.947	0.062999
3.948	0.056937
3.949	0.051185
3.95	0.041129
3.951	0.023349
3.952	-0.001252
3.953	-0.026281
3.954	-0.042613
3.955	-0.043814
3.956	-0.030316
3.957	-0.009109
3.958	0.010868
3.959	0.023841
3.96	0.029208
3.961	0.030025
3.962	0.029773
3.963	0.029904
3.964	0.029849
3.965	0.02873
3.966	0.026598
3.967	0.024011
3.968	0.020478
3.969	0.013547
3.97	0.000264
3.971	-0.01969
3.972	-0.04234
3.973	-0.061008
3.974	-0.069644
3.975	-0.065639
3.976	-0.051019
3.977	-0.031632
3.978	-0.014509
3.979	-0.004565
3.98	-0.002326
3.981	-0.004173
3.982	-0.00541
3.983	-0.003791
3.984	-0.000413
3.985	0.002245
3.986	0.002729
3.987	0.001091
3.988	-0.002581
3.989	-0.009509
3.99	-0.021639
3.991	-0.03954
3.992	-0.060633
3.993	-0.079187
3.994	-0.088546
3.995	-0.084735
3.996	-0.069091
3.997	-0.047614
3.998	-0.027509
3.999	-0.013692
4.0	-0.007423
4.001	-0.007099
4.002	-0.009844
4.003	-0.012592
4.004	-0.012687
4.005	-0.008718
4.006	-0.001092
4.007	0.008324
4.008	0.016788
4.009	0.02094
4.01	0.017235
4.011	0.003279
4.012	-0.019921
4.013	-0.046421
4.014	-0.067035
4.015	-0.074331
4.016	-0.067212
4.017	-0.051182
4.018	-0.034516
4.019	-0.023752
4.02	-0.021
4.021	-0.023971
4.022	-0.028483
4.023	-0.031439
4.024	-0.031994
4.025	-0.030684
4.026	-0.028097
4.027	-0.024756
4.028	-0.022216
4.029	-0.023396
4.03	-0.031012
4.031	-0.045346
4.032	-0.063204
4.033	-0.078782
4.034	-0.086098
4.035	-0.081867
4.036	-0.067199
4.037	-0.047179
4.038	-0.028811
4.039	-0.018012
4.04	-0.016535
4.041	-0.020988
4.042	-0.02564
4.043	-0.027037
4.044	-0.026348
4.045	-0.0278
4.046	-0.035007
4.047	-0.047627
4.048	-0.059199
4.049	-0.056681
4.05	-0.023537
4.051	0.052466
4.052	0.168491
4.053	0.298561
4.054	0.398299
4.055	0.427705
4.056	0.378059
4.057	0.278206
4.058	0.173727
4.059	0.099014
4.06	0.064006
4.061	0.058819
4.062	0.066375
4.063	0.072959
4.064	0.072415
4.065	0.065142
4.066	0.054791
4.067	0.044833
4.068	0.036273
4.069	0.027068
4.07	0.01345
4.071	-0.007214
4.072	-0.033483
4.073	-0.059164
4.074	-0.076025
4.075	-0.078179
4.076	-0.065233
4.077	-0.042719
4.078	-0.019664
4.079	-0.003897
4.08	0.00231
4.081	0.002788
4.082	0.003496
4.083	0.007604
4.084	0.014043
4.085	0.020003
4.086	0.023904
4.087	0.025875
4.088	0.026182
4.089	0.023754
4.09	0.016349
4.091	0.002376
4.092	-0.017
4.093	-0.037109
4.094	-0.051144
4.095	-0.053312
4.096	-0.042189
4.097	-0.02175
4.098	0.001054
4.099	0.020197
4.1	0.033023
4.101	0.040302
4.102	0.044532
4.103	0.047713
4.104	0.050327
4.105	0.052113
4.106	0.053272
4.107	0.054575
4.108	0.056316
4.109	0.057101
4.11	0.053661
4.111	0.042461
4.112	0.022722
4.113	-0.00124
4.114	-0.02093
4.115	-0.028124
4.116	-0.019867
4.117	-4.1e-05
4.118	0.023527
4.119	0.043485
4.12	0.0559
4.121	0.061011
4.122	0.061989
4.123	0.06274
4.124	0.066354
4.125	0.074484
4.126	0.086873
4.127	0.101169
4.128	0.113461
4.129	0.119276
4.13	0.114987
4.131	0.09949
4.132	0.075371
4.133	0.048834
4.134	0.028007
4.135	0.019632
4.136	0.02552
4.137	0.041434
4.138	0.059685
4.139	0.073564
4.14	0.08064
4.141	0.083083
4.142	0.084888
4.143	0.088362
4.144	0.093082
4.145	0.097588
4.146	0.101309
4.147	0.104692
4.148	0.107818
4.149	0.109215
4.15	0.106132
4.151	0.096064
4.152	0.078809
4.153	0.058261
4.154	0.041979
4.155	0.037259
4.156	0.046381
4.157	0.065357
4.158	0.086839
4.159	0.104147
4.16	0.113934
4.161	0.116933
4.162	0.116576
4.163	0.116106
4.164	0.116304
4.165	0.115312
4.166	0.110216
4.167	0.099716
4.168	0.087222
4.169	0.082841
4.17	0.101986
4.171	0.159292
4.172	0.258864
4.173	0.384365
4.174	0.497264
4.175	0.552825
4.176	0.528344
4.177	0.439742
4.178	0.329938
4.179	0.240165
4.18	0.189468
4.181	0.174
4.182	0.178504
4.183	0.18783
4.184	0.192697
4.185	0.190251
4.186	0.182075
4.187	0.171286
4.188	0.15977
4.189	0.146835
4.19	0.13006
4.191	0.107755
4.192	0.081288
4.193	0.055433
4.194	0.036321
4.195	0.028689
4.196	0.034334
4.197	0.051668
4.198	0.075796
4.199	0.100127
4.2	0.11945
4.201	0.131988
4.202	0.139009
4.203	0.143025
4.204	0.146023
4.205	0.148661
4.206	0.150827
4.207	0.152699
4.208	0.154711
4.209	0.156012
4.21	0.153168
4.211	0.141453
4.212	0.118823
4.213	0.089235
4.214	0.061829
4.215	0.046167
4.216	0.047009
4.217	0.062183
4.218	0.084553
4.219	0.106202
4.22	0.121913
4.221	0.130272
4.222	0.132823
4.223	0.132442
4.224	0.131566
4.225	0.130968
4.226	0.130099
4.227	0.128439
4.228	0.125882
4.229	0.121832
4.23	0.114661
4.231	0.102413
4.232	0.084409
4.233	0.062997
4.234	0.043984
4.235	0.034332
4.236	0.037988
4.237	0.053048
4.238	0.072778
4.239	0.089749
4.24	0.099744
4.241	0.103015
4.242	0.102944
4.243	0.103386
4.244	0.106503
4.245	0.112656
4.246	0.121734
4.247	0.133488
4.248	0.14572
4.249	0.152677
4.25	0.147214
4.251	0.126221
4.252	0.093879
4.253	0.059351
4.254	0.03181
4.255	0.016869
4.256	0.015099
4.257	0.022631
4.258	0.034302
4.259	0.04687
4.26	0.059
4.261	0.069399
4.262	0.076215
4.263	0.077789
4.264	0.073538
4.265	0.064637
4.266	0.05442
4.267	0.047764
4.268	0.048613
4.269	0.056222
4.27	0.063111
4.271	0.058612
4.272	0.037234
4.273	0.00455
4.274	-0.025456
4.275	-0.039614
4.276	-0.033546
4.277	-0.012482
4.278	0.013281
4.279	0.032831
4.28	0.038745
4.281	0.031668
4.282	0.019853
4.283	0.011411
4.284	0.008191
4.285	0.007389
4.286	0.00544
4.287	-0.000714
4.288	-0.011845
4.289	-0.02219
4.29	-0.017887
4.291	0.017544
4.292	0.092604
4.293	0.19712
4.294	0.299277
4.295	0.358721
4.296	0.351079
4.297	0.283593
4.298	0.188222
4.299	0.100355
4.3	0.041274
4.301	0.014161
4.302	0.010358
4.303	0.0178
4.304	0.026612
4.305	0.030997
4.306	0.028967
4.307	0.021601
4.308	0.011718
4.309	0.001542
4.31	-0.009363
4.311	-0.023875
4.312	-0.044352
4.313	-0.069269
4.314	-0.092714
4.315	-0.107643
4.316	-0.1102
4.317	-0.101611
4.318	-0.08683
4.319	-0.071656
4.32	-0.060142
4.321	-0.05353
4.322	-0.050966
4.323	-0.050821
4.324	-0.051536
4.325	-0.052137
4.326	-0.052609
4.327	-0.053638
4.328	-0.055971
4.329	-0.060367
4.33	-0.068068
4.331	-0.080647
4.332	-0.098577
4.333	-0.119339
4.334	-0.137152
4.335	-0.145594
4.336	-0.141513
4.337	-0.127057
4.338	-0.108377
4.339	-0.092155
4.34	-0.082174
4.341	-0.077916
4.342	-0.075979
4.343	-0.073024
4.344	-0.068101
4.345	-0.062872
4.346	-0.059659
4.347	-0.059376
4.348	-0.06168
4.349	-0.066638
4.35	-0.075331
4.351	-0.088547
4.352	-0.105151
4.353	-0.121815
4.354	-0.134201
4.355	-0.138825
4.356	-0.134697
4.357	-0.123879
4.358	-0.11049
4.359	-0.098646
4.36	-0.090529
4.361	-0.085804
4.362	-0.082627
4.363	-0.079054
4.364	-0.073642
4.365	-0.065426
4.366	-0.054071
4.367	-0.040316
4.368	-0.026483
4.369	-0.016449
4.37	-0.014603
4.371	-0.024052
4.372	-0.044775
4.373	-0.072573
4.374	-0.099887
4.375	-0.118863
4.376	-0.125029
4.377	-0.118834
4.378	-0.104171
4.379	-0.085796
4.38	-0.067739
4.381	-0.052843
4.382	-0.042468
4.383	-0.036351
4.384	-0.033159
4.385	-0.031305
4.386	-0.029299
4.387	-0.026099
4.388	-0.022002
4.389	-0.019122
4.39	-0.020511
4.391	-0.028336
4.392	-0.042128
4.393	-0.058125
4.394	-0.070503
4.395	-0.074146
4.396	-0.067289
4.397	-0.052506
4.398	-0.035453
4.399	-0.021853
4.4	-0.014406
4.401	-0.011688
4.402	-0.00998
4.403	-0.006716
4.404	-0.002695
4.405	-0.001118
4.406	-0.004491
4.407	-0.011853
4.408	-0.017042
4.409	-0.008086
4.41	0.030061
4.411	0.107155
4.412	0.216229
4.413	0.328034
4.414	0.401299
4.415	0.406854
4.416	0.34726
4.417	0.254265
4.418	0.16727
4.419	0.111885
4.42	0.092063
4.421	0.095753
4.422	0.106385
4.423	0.112042
4.424	0.108689
4.425	0.098759
4.426	0.087488
4.427	0.079095
4.428	0.074795
4.429	0.072862
4.43	0.069651
4.431	0.061225
4.432	0.045742
4.433	0.025428
4.434	0.006135
4.435	-0.005741
4.436	-0.006839
4.437	0.001499
4.438	0.014502
4.439	0.027052
4.44	0.036265
4.441	0.042093
4.442	0.046003
4.443	0.049044
4.444	0.051154
4.445	0.052126
4.446	0.052379
4.447	0.052215
4.448	0.050779
4.449	0.046298
4.45	0.037536
4.451	0.025106
4.452	0.011356
4.453	-0.000883
4.454	-0.009377
4.455	-0.012901
4.456	-0.011348
4.457	-0.005768
4.458	0.001989
4.459	0.010046
4.46	0.017233
4.461	0.023417
4.462	0.029067
4.463	0.03436
4.464	0.038897
4.465	0.0422
4.466	0.044029
4.467	0.044325
4.468	0.043094
4.469	0.04028
4.47	0.035687
4.471	0.02899
4.472	0.019831
4.473	0.00846
4.474	-0.00333
4.475	-0.012404
4.476	-0.016046
4.477	-0.013413
4.478	-0.005305
4.479	0.006587
4.48	0.019723
4.481	0.030755
4.482	0.036652
4.483	0.036472
4.484	0.032304
4.485	0.028197
4.486	0.027822
4.487	0.032756
4.488	0.042039
4.489	0.052681
4.49	0.061031
4.491	0.064293
4.492	0.061228
4.493	0.052341
4.494	0.039798
4.495	0.026627
4.496	0.015521
4.497	0.008178
4.498	0.005185
4.499	0.005788
4.5	0.008186
4.501	0.011047
4.502	0.014679
4.503	0.020079
4.504	0.027072
4.505	0.033891
4.506	0.038616
4.507	0.040531
4.508	0.039836
4.509	0.036825
4.51	0.031956
4.511	0.026056
4.512	0.019723
4.513	0.012753
4.514	0.004693
4.515	-0.004
4.516	-0.011375
4.517	-0.014432
4.518	-0.010638
4.519	7.9e-05
4.52	0.014557
4.521	0.027907
4.522	0.036202
4.523	0.03835
4.524	0.036021
4.525	0.031947
4.526	0.028077
4.527	0.024532
4.528	0.019576
4.529	0.011129
4.53	-0.000267
4.531	-0.008539
4.532	-0.001081
4.533	0.038419
4.534	0.121942
4.535	0.244959
4.536	0.377323
4.537	0.470661
4.538	0.485901
4.539	0.420274
4.54	0.308385
4.541	0.197591
4.542	0.120562
4.543	0.084399
4.544	0.077329
4.545	0.08203
4.546	0.085667
4.547	0.083129
4.548	0.07512
4.549	0.064823
4.55	0.055459
4.551	0.048803
4.552	0.04446
4.553	0.040182
4.554	0.033289
4.555	0.022642
4.556	0.010174
4.557	0.000365
4.558	-0.002717
4.559	0.0018
4.56	0.011586
4.561	0.023271
4.562	0.034402
4.563	0.043903
4.564	0.051553
4.565	0.057465
4.566	0.061896
4.567	0.064998
4.568	0.066655
4.569	0.066836
4.57	0.065932
4.571	0.064331
4.572	0.061705
4.573	0.056933
4.574	0.048856
4.575	0.037543
4.576	0.025271
4.577	0.016176
4.578	0.014469
4.579	0.022219
4.58	0.037813
4.581	0.056232
4.582	0.071625
4.583	0.080524
4.584	0.083222
4.585	0.08244
4.586	0.080801
4.587	0.079422
4.588	0.078346
4.589	0.077493
4.59	0.07685
4.591	0.076097
4.592	0.074318
4.593	0.07023
4.594	0.063014
4.595	0.05324
4.596	0.043027
4.597	0.035262
4.598	0.032474
4.599	0.03588
4.6	0.044801
4.601	0.056873
4.602	0.069075
4.603	0.078783
4.604	0.084504
4.605	0.086417
4.606	0.086262
4.607	0.086227
4.608	0.087562
4.609	0.090093
4.61	0.093011
4.611	0.096096
4.612	0.099835
4.613	0.104016
4.614	0.106665
4.615	0.10489
4.616	0.09683
4.617	0.083127
4.618	0.067304
4.619	0.054583
4.62	0.049096
4.621	0.051457
4.622	0.058879
4.623	0.067473
4.624	0.074527
4.625	0.079168
4.626	0.0816
4.627	0.082219
4.628	0.081463
4.629	0.079995
4.63	0.07864
4.631	0.077945
4.632	0.077657
4.633	0.076742
4.634	0.074024
4.635	0.068632
4.636	0.060152
4.637	0.049536
4.638	0.040335
4.639	0.037705
4.64	0.044693
4.641	0.059251
4.642	0.075158
4.643	0.086122
4.644	0.089667
4.645	0.087881
4.646	0.084902
4.647	0.083541
4.648	0.083675
4.649	0.083031
4.65	0.0789
4.651	0.069558
4.652	0.056074
4.653	0.045182
4.654	0.051004
4.655	0.091771
4.656	0.180331
4.657	0.311271
4.658	0.452085
4.659	0.55123
4.66	0.567131
4.661	0.497278
4.662	0.379713
4.663	0.265755
4.664	0.189532
4.665	0.156844
4.666	0.153775
4.667	0.161584
4.668	0.166768
4.669	0.163734
4.67	0.153007
4.671	0.138244
4.672	0.123419
4.673	0.110727
4.674	0.099699
4.675	0.087743
4.676	0.072084
4.677	0.052559
4.678	0.033059
4.679	0.019843
4.68	0.017817
4.681	0.027404
4.682	0.043924
4.683	0.060121
4.684	0.070341
4.685	0.073251
4.686	0.0713
4.687	0.068092
4.688	0.066075
4.689	0.065765
4.69	0.066115
4.691	0.065349
4.692	0.062005
4.693	0.055702
4.694	0.046764
4.695	0.035092
4.696	0.020092
4.697	0.002231
4.698	-0.015819
4.699	-0.029866
4.7	-0.035868
4.701	-0.031722
4.702	-0.018618
4.703	-0.000909
4.704	0.015849
4.705	0.027467
4.706	0.032806
4.707	0.033501
4.708	0.031865
4.709	0.028916
4.71	0.024574
4.711	0.01941
4.712	0.015156
4.713	0.012954
4.714	0.011605
4.715	0.008044
4.716	-0.00034
4.717	-0.013723
4.718	-0.029707
4.719	-0.044471
4.72	-0.053985
4.721	-0.055105
4.722	-0.04689
4.723	-0.031675
4.724	-0.014621
4.725	-0.001308
4.726	0.00524
4.727	0.005735
4.728	0.003265
4.729	0.001099
4.73	0.001486
4.731	0.005316
4.732	0.011993
4.733	0.019542
4.734	0.025129
4.735	0.025923
4.736	0.020011
4.737	0.007007
4.738	-0.011393
4.739	-0.031066
4.74	-0.046606
4.741	-0.054076
4.742	-0.053186
4.743	-0.046986
4.744	-0.039564
4.745	-0.033817
4.746	-0.030614
4.747	-0.029231
4.748	-0.028372
4.749	-0.027036
4.75	-0.024926
4.751	-0.02257
4.752	-0.02101
4.753	-0.020978
4.754	-0.022427
4.755	-0.025133
4.756	-0.029722
4.757	-0.037629
4.758	-0.049501
4.759	-0.063427
4.76	-0.074888
4.761	-0.078636
4.762	-0.071522
4.763	-0.054778
4.764	-0.033873
4.765	-0.015388
4.766	-0.003223
4.767	0.002699
4.768	0.004641
4.769	0.004517
4.77	0.002815
4.771	-0.00089
4.772	-0.007212
4.773	-0.016321
4.774	-0.025947
4.775	-0.028231
4.776	-0.008941
4.777	0.047875
4.778	0.149911
4.779	0.284295
4.78	0.4126
4.781	0.485795
4.782	0.474752
4.783	0.390516
4.784	0.275422
4.785	0.174765
4.786	0.11361
4.787	0.092145
4.788	0.095376
4.789	0.106048
4.79	0.112665
4.791	0.110982
4.792	0.101801
4.793	0.088333
4.794	0.074335
4.795	0.062323
4.796	0.051865
4.797	0.039986
4.798	0.024329
4.799	0.00619
4.8	-0.009611
4.801	-0.017691
4.802	-0.015443
4.803	-0.00446
4.804	0.010738
4.805	0.02533
4.806	0.036138
4.807	0.042328
4.808	0.044972
4.809	0.045518
4.81	0.044569
4.811	0.042354
4.812	0.03972
4.813	0.037992
4.814	0.037892
4.815	0.038483
4.816	0.036901
4.817	0.029578
4.818	0.014654
4.819	-0.006123
4.82	-0.027421
4.821	-0.04226
4.822	-0.045266
4.823	-0.035669
4.824	-0.017733
4.825	0.001771
4.826	0.016993
4.827	0.0254
4.828	0.028091
4.829	0.027913
4.83	0.027118
4.831	0.026538
4.832	0.02625
4.833	0.026298
4.834	0.026602
4.835	0.026232
4.836	0.023139
4.837	0.015158
4.838	0.001716
4.839	-0.015128
4.84	-0.031007
4.841	-0.040839
4.842	-0.041036
4.843	-0.031101
4.844	-0.013799
4.845	0.005613
4.846	0.021077
4.847	0.028818
4.848	0.02963
4.849	0.027676
4.85	0.027094
4.851	0.029571
4.852	0.034214
4.853	0.039147
4.854	0.043198
4.855	0.046001
4.856	0.046735
4.857	0.043509
4.858	0.034364
4.859	0.018913
4.86	-0.000505
4.861	-0.019019
4.862	-0.031065
4.863	-0.033038
4.864	-0.025201
4.865	-0.011672
4.866	0.001932
4.867	0.011649
4.868	0.016487
4.869	0.017427
4.87	0.016129
4.871	0.014481
4.872	0.01421
4.873	0.016066
4.874	0.019421
4.875	0.022772
4.876	0.024398
4.877	0.022456
4.878	0.01496
4.879	0.000815
4.88	-0.018072
4.881	-0.035731
4.882	-0.044338
4.883	-0.038995
4.884	-0.021374
4.885	0.000996
4.886	0.019547
4.887	0.029617
4.888	0.031776
4.889	0.029627
4.89	0.026681
4.891	0.024277
4.892	0.021268
4.893	0.015228
4.894	0.004425
4.895	-0.009758
4.896	-0.020278
4.897	-0.01355
4.898	0.027305
4.899	0.113991
4.9	0.240925
4.901	0.376702
4.902	0.471989
4.903	0.487053
4.904	0.419122
4.905	0.303937
4.906	0.190443
4.907	0.112333
4.908	0.076986
4.909	0.07247
4.91	0.080944
4.911	0.088364
4.912	0.087853
4.913	0.078989
4.914	0.065517
4.915	0.052381
4.916	0.042513
4.917	0.034799
4.918	0.024936
4.919	0.008917
4.92	-0.013414
4.921	-0.037235
4.922	-0.054786
4.923	-0.059517
4.924	-0.049896
4.925	-0.030233
4.926	-0.008063
4.927	0.009681
4.928	0.019306
4.929	0.020901
4.93	0.017174
4.931	0.011758
4.932	0.007684
4.933	0.006165
4.934	0.006443
4.935	0.006928
4.936	0.006176
4.937	0.00261
4.938	-0.005803
4.939	-0.020359
4.94	-0.039706
4.941	-0.059299
4.942	-0.073015
4.943	-0.076057
4.944	-0.067386
4.945	-0.050201
4.946	-0.030445
4.947	-0.01416
4.948	-0.004578
4.949	-0.000756
4.95	0.000733
4.951	0.002465
4.952	0.00443
4.953	0.005217
4.954	0.004266
4.955	0.00254
4.956	0.001003
4.957	-0.001123
4.958	-0.006028
4.959	-0.015264
4.96	-0.028198
4.961	-0.041919
4.962	-0.052157
4.963	-0.054794
4.964	-0.047702
4.965	-0.03224
4.966	-0.013304
4.967	0.002836
4.968	0.011783
4.969	0.012935
4.97	0.009111
4.971	0.004887
4.972	0.004478
4.973	0.009853
4.974	0.020169
4.975	0.032709
4.976	0.044123
4.977	0.051075
4.978	0.050701
4.979	0.041339
4.98	0.023455
4.981	0.000611
4.982	-0.020545
4.983	-0.032587
4.984	-0.03118
4.985	-0.017708
4.986	0.001546
4.987	0.019261
4.988	0.030784
4.989	0.034996
4.99	0.033182
4.991	0.027777
4.992	0.021283
4.993	0.015413
4.994	0.011089
4.995	0.008853
4.996	0.008554
4.997	0.008671
4.998	0.006515
4.999	-0.000527
5.0	-0.013432
5.001	-0.030338
5.002	-0.046478
5.003	-0.055756
5.004	-0.053807
5.005	-0.040983
5.006	-0.022705
5.007	-0.006245
5.008	0.003708
5.009	0.007233
5.01	0.007729
5.011	0.008257
5.012	0.008804
5.013	0.006785
5.014	-0.000337
5.015	-0.013144
5.016	-0.029442
5.017	-0.042602
5.018	-0.039866
5.019	-0.004644
5.02	0.075364
5.021	0.1965
5.022	0.330614
5.023	0.430921
5.024	0.456729
5.025	0.400665
5.026	0.293541
5.027	0.182379
5.028	0.102149
5.029	0.062652
5.03	0.05382
5.031	0.05884
5.032	0.064518
5.033	0.064976
5.034	0.060138
5.035	0.052284
5.036	0.043476
5.037	0.034496
5.038	0.024155
5.039	0.009219
5.04	-0.013263
5.041	-0.042114
5.042	-0.070459
5.043	-0.088761
5.044	-0.090552
5.045	-0.076471
5.046	-0.053595
5.047	-0.031018
5.048	-0.015115
5.049	-0.007236
5.05	-0.004704
5.051	-0.004071
5.052	-0.003861
5.053	-0.004629
5.054	-0.007154
5.055	-0.011211
5.056	-0.015947
5.057	-0.020975
5.058	-0.027239
5.059	-0.036912
5.06	-0.051977
5.061	-0.072252
5.062	-0.09422
5.063	-0.11169
5.064	-0.118571
5.065	-0.11233
5.066	-0.095736
5.067	-0.075561
5.068	-0.058928
5.069	-0.049534
5.07	-0.04635
5.071	-0.0457
5.072	-0.044685
5.073	-0.042903
5.074	-0.041611
5.075	-0.041773
5.076	-0.042964
5.077	-0.044449
5.078	-0.047414
5.079	-0.055355
5.08	-0.071353
5.081	-0.094376
5.082	-0.118053
5.083	-0.133545
5.084	-0.134649
5.085	-0.121225
5.086	-0.098792
5.087	-0.075389
5.088	-0.057982
5.089	-0.049893
5.09	-0.049912
5.091	-0.0533
5.092	-0.054442
5.093	-0.049824
5.094	-0.039486
5.095	-0.026192
5.096	-0.013457
5.097	-0.004328
5.098	-0.001324
5.099	-0.006434
5.1	-0.020437
5.101	-0.041718
5.102	-0.065462
5.103	-0.084636
5.104	-0.092921
5.105	-0.087759
5.106	-0.071547
5.107	-0.050273
5.108	-0.030188
5.109	-0.0147
5.11	-0.003793
5.111	0.004095
5.112	0.009927
5.113	0.013536
5.114	0.014807
5.115	0.015013
5.116	0.016432
5.117	0.02034
5.118	0.025539
5.119	0.028546
5.12	0.025134
5.121	0.012999
5.122	-0.005472
5.123	-0.022899
5.124	-0.030435
5.125	-0.023078
5.126	-0.002898
5.127	0.022263
5.128	0.043485
5.129	0.055301
5.13	0.05746
5.131	0.053768
5.132	0.049087
5.133	0.046258
5.134	0.044803
5.135	0.041891
5.136	0.034876
5.137	0.024699
5.138	0.018925
5.139	0.031831
5.14	0.079695
5.141	0.171797
5.142	0.299033
5.143	0.427281
5.144	0.508472
5.145	0.509633
5.146	0.436322
5.147	0.327632
5.148	0.228429
5.149	0.164448
5.15	0.136888
5.151	0.132411
5.152	0.135719
5.153	0.136735
5.154	0.131816
5.155	0.121846
5.156	0.10967
5.157	0.09798
5.158	0.087839
5.159	0.077877
5.16	0.064919
5.161	0.046402
5.162	0.023219
5.163	0.000747
5.164	-0.013338
5.165	-0.013611
5.166	-0.000568
5.167	0.019658
5.168	0.039283
5.169	0.053141
5.17	0.06007
5.171	0.061356
5.172	0.058662
5.173	0.053321
5.174	0.046929
5.175	0.041661
5.176	0.039333
5.177	0.040007
5.178	0.041195
5.179	0.038336
5.18	0.027178
5.181	0.007136
5.182	-0.016902
5.183	-0.036176
5.184	-0.042705
5.185	-0.034016
5.186	-0.014255
5.187	0.008794
5.188	0.027724
5.189	0.038021
5.19	0.039
5.191	0.033701
5.192	0.027433
5.193	0.024818
5.194	0.026946
5.195	0.031064
5.196	0.033404
5.197	0.032231
5.198	0.02788
5.199	0.020756
5.2	0.010639
5.201	-0.002336
5.202	-0.016584
5.203	-0.028721
5.204	-0.03445
5.205	-0.030809
5.206	-0.018291
5.207	-0.000831
5.208	0.016389
5.209	0.029558
5.21	0.037653
5.211	0.041916
5.212	0.04412
5.213	0.045499
5.214	0.04676
5.215	0.048495
5.216	0.051713
5.217	0.057628
5.218	0.06593
5.219	0.07314
5.22	0.073613
5.221	0.063138
5.222	0.042354
5.223	0.017246
5.224	-0.003975
5.225	-0.015484
5.226	-0.01628
5.227	-0.009087
5.228	0.002151
5.229	0.013847
5.23	0.023252
5.231	0.028543
5.232	0.029152
5.233	0.026546
5.234	0.024086
5.235	0.025005
5.236	0.030219
5.237	0.037626
5.238	0.042764
5.239	0.040798
5.24	0.029149
5.241	0.009122
5.242	-0.013888
5.243	-0.031946
5.244	-0.038488
5.245	-0.032187
5.246	-0.017117
5.247	0.000126
5.248	0.01345
5.249	0.019516
5.25	0.018863
5.251	0.015151
5.252	0.012796
5.253	0.013816
5.254	0.015714
5.255	0.01313
5.256	0.002633
5.257	-0.013565
5.258	-0.027029
5.259	-0.024834
5.26	0.006453
5.261	0.074408
5.262	0.173314
5.263	0.279115
5.264	0.354785
5.265	0.370081
5.266	0.321831
5.267	0.235134
5.268	0.145386
5.269	0.078732
5.27	0.044046
5.271	0.035599
5.272	0.040057
5.273	0.043904
5.274	0.039374
5.275	0.02694
5.276	0.012767
5.277	0.00268
5.278	-0.002389
5.279	-0.006211
5.28	-0.013863
5.281	-0.028471
5.282	-0.049379
5.283	-0.071692
5.284	-0.088035
5.285	-0.092547
5.286	-0.084522
5.287	-0.068875
5.288	-0.053044
5.289	-0.04269
5.29	-0.039271
5.291	-0.040542
5.292	-0.042817
5.293	-0.043346
5.294	-0.041483
5.295	-0.038383
5.296	-0.035987
5.297	-0.035977
5.298	-0.039376
5.299	-0.047093
5.3	-0.060283
5.301	-0.079163
5.302	-0.10114
5.303	-0.120657
5.304	-0.13161
5.305	-0.130766
5.306	-0.11977
5.307	-0.104199
5.308	-0.090229
5.309	-0.0815
5.31	-0.078191
5.311	-0.078076
5.312	-0.078479
5.313	-0.077938
5.314	-0.076531
5.315	-0.075058
5.316	-0.074308
5.317	-0.074835
5.318	-0.076952
5.319	-0.081056
5.32	-0.088095
5.321	-0.099339
5.322	-0.114969
5.323	-0.132372
5.324	-0.146029
5.325	-0.150218
5.326	-0.142927
5.327	-0.127371
5.328	-0.109558
5.329	-0.094564
5.33	-0.084554
5.331	-0.078892
5.332	-0.075389
5.333	-0.071614
5.334	-0.065642
5.335	-0.056514
5.336	-0.044743
5.337	-0.032479
5.338	-0.023262
5.339	-0.021462
5.34	-0.030894
5.341	-0.052456
5.342	-0.082264
5.343	-0.112211
5.344	-0.133304
5.345	-0.140026
5.346	-0.132863
5.347	-0.117195
5.348	-0.099626
5.349	-0.084774
5.35	-0.074271
5.351	-0.067206
5.352	-0.061248
5.353	-0.05438
5.354	-0.046222
5.355	-0.037759
5.356	-0.03001
5.357	-0.023353
5.358	-0.018387
5.359	-0.017014
5.36	-0.021679
5.361	-0.032979
5.362	-0.047915
5.363	-0.060574
5.364	-0.065076
5.365	-0.058956
5.366	-0.044353
5.367	-0.026022
5.368	-0.00821
5.369	0.006989
5.37	0.019301
5.371	0.029003
5.372	0.03591
5.373	0.039255
5.374	0.03821
5.375	0.032484
5.376	0.023106
5.377	0.014294
5.378	0.015685
5.379	0.04165
5.38	0.105019
5.381	0.206558
5.382	0.326427
5.383	0.426665
5.384	0.469245
5.385	0.439872
5.386	0.357486
5.387	0.260795
5.388	0.184576
5.389	0.144246
5.39	0.135532
5.391	0.143841
5.392	0.154662
5.393	0.159583
5.394	0.157011
5.395	0.149592
5.396	0.141042
5.397	0.133858
5.398	0.128011
5.399	0.120966
5.4	0.1094
5.401	0.091888
5.402	0.070788
5.403	0.051723
5.404	0.04061
5.405	0.040343
5.406	0.049705
5.407	0.064625
5.408	0.080151
5.409	0.092416
5.41	0.100008
5.411	0.103897
5.412	0.106081
5.413	0.108021
5.414	0.10981
5.415	0.110572
5.416	0.109583
5.417	0.106864
5.418	0.102747
5.419	0.097214
5.42	0.089629
5.421	0.078988
5.422	0.064902
5.423	0.048839
5.424	0.034405
5.425	0.026068
5.426	0.026926
5.427	0.036843
5.428	0.05247
5.429	0.069316
5.43	0.083879
5.431	0.094274
5.432	0.099838
5.433	0.10085
5.434	0.09849
5.435	0.094542
5.436	0.090649
5.437	0.08743
5.438	0.084116
5.439	0.079057
5.44	0.070699
5.441	0.058408
5.442	0.04305
5.443	0.027291
5.444	0.015054
5.445	0.00982
5.446	0.012684
5.447	0.02176
5.448	0.033403
5.449	0.043894
5.45	0.050549
5.451	0.052733
5.452	0.052361
5.453	0.052513
5.454	0.0552
5.455	0.060512
5.456	0.067329
5.457	0.074102
5.458	0.079136
5.459	0.080756
5.46	0.077542
5.461	0.068714
5.462	0.054693
5.463	0.037359
5.464	0.019632
5.465	0.004681
5.466	-0.004931
5.467	-0.007856
5.468	-0.004158
5.469	0.00459
5.47	0.015536
5.471	0.025574
5.472	0.032548
5.473	0.035688
5.474	0.035384
5.475	0.032686
5.476	0.02863
5.477	0.02378
5.478	0.018667
5.479	0.014346
5.48	0.011462
5.481	0.008489
5.482	0.001876
5.483	-0.011013
5.484	-0.028822
5.485	-0.046278
5.486	-0.057406
5.487	-0.058746
5.488	-0.05056
5.489	-0.036463
5.49	-0.021884
5.491	-0.011481
5.492	-0.007105
5.493	-0.007686
5.494	-0.010539
5.495	-0.013235
5.496	-0.015427
5.497	-0.019311
5.498	-0.027857
5.499	-0.04169
5.5	-0.055884
5.501	-0.057991
5.502	-0.030134
5.503	0.04282
5.504	0.160566
5.505	0.296592
5.506	0.402142
5.507	0.432235
5.508	0.37629
5.509	0.264576
5.51	0.145732
5.511	0.057561
5.512	0.012675
5.513	0.002412
5.514	0.009226
5.515	0.017577
5.516	0.019036
5.517	0.012135
5.518	-0.0003
5.519	-0.014295
5.52	-0.027258
5.521	-0.039101
5.522	-0.051738
5.523	-0.067278
5.524	-0.086079
5.525	-0.105995
5.526	-0.122921
5.527	-0.13232
5.528	-0.131503
5.529	-0.121423
5.53	-0.106478
5.531	-0.09242
5.532	-0.083697
5.533	-0.081591
5.534	-0.084231
5.535	-0.088596
5.536	-0.092922
5.537	-0.097265
5.538	-0.102118
5.539	-0.107277
5.54	-0.112361
5.541	-0.118195
5.542	-0.127196
5.543	-0.141742
5.544	-0.161679
5.545	-0.183114
5.546	-0.199482
5.547	-0.204617
5.548	-0.196503
5.549	-0.178991
5.55	-0.159742
5.551	-0.145825
5.552	-0.140195
5.553	-0.141252
5.554	-0.145279
5.555	-0.149434
5.556	-0.152896
5.557	-0.156159
5.558	-0.160187
5.559	-0.165999
5.56	-0.174108
5.561	-0.184132
5.562	-0.195197
5.563	-0.206718
5.564	-0.218709
5.565	-0.231102
5.566	-0.242528
5.567	-0.250019
5.568	-0.250466
5.569	-0.242847
5.57	-0.229431
5.571	-0.214954
5.572	-0.204126
5.573	-0.1992
5.574	-0.199312
5.575	-0.201515
5.576	-0.202314
5.577	-0.199017
5.578	-0.190686
5.579	-0.178347
5.58	-0.164742
5.581	-0.153989
5.582	-0.150618
5.583	-0.15777
5.584	-0.175541
5.585	-0.200553
5.586	-0.227011
5.587	-0.248677
5.588	-0.260923
5.589	-0.262245
5.59	-0.254871
5.591	-0.243875
5.592	-0.234932
5.593	-0.232039
5.594	-0.236358
5.595	-0.246254
5.596	-0.2586
5.597	-0.270852
5.598	-0.281911
5.599	-0.290989
5.6	-0.296837
5.601	-0.298883
5.602	-0.298505
5.603	-0.298636
5.604	-0.302072
5.605	-0.309623
5.606	-0.319064
5.607	-0.325803
5.608	-0.325331
5.609	-0.316154
5.61	-0.301141
5.611	-0.285822
5.612	-0.274759
5.613	-0.269197
5.614	-0.267522
5.615	-0.267252
5.616	-0.266942
5.617	-0.267237
5.618	-0.270559
5.619	-0.279532
5.62	-0.294983
5.621	-0.313544
5.622	-0.325204
5.623	-0.313656
5.624	-0.261948
5.625	-0.162553
5.626	-0.028596
5.627	0.101594
5.628	0.178325
5.629	0.170412
5.63	0.086678
5.631	-0.031078
5.632	-0.136315
5.633	-0.202755
5.634	-0.229824
5.635	-0.232085
5.636	-0.226254
5.637	-0.223897
5.638	-0.229256
5.639	-0.240073
5.64	-0.251199
5.641	-0.259479
5.642	-0.266314
5.643	-0.276086
5.644	-0.292518
5.645	-0.316041
5.646	-0.343206
5.647	-0.367655
5.648	-0.382429
5.649	-0.383337
5.65	-0.371573
5.651	-0.353404
5.652	-0.336921
5.653	-0.3279
5.654	-0.32724
5.655	-0.331658
5.656	-0.337025
5.657	-0.341152
5.658	-0.343854
5.659	-0.345747
5.66	-0.347623
5.661	-0.35009
5.662	-0.353421
5.663	-0.358112
5.664	-0.365493
5.665	-0.377242
5.666	-0.393563
5.667	-0.411345
5.668	-0.424641
5.669	-0.428068
5.67	-0.420418
5.671	-0.405253
5.672	-0.388347
5.673	-0.374489
5.674	-0.365738
5.675	-0.361632
5.676	-0.360651
5.677	-0.361519
5.678	-0.363436
5.679	-0.365795
5.68	-0.36814
5.681	-0.370408
5.682	-0.373253
5.683	-0.378213
5.684	-0.387293
5.685	-0.401838
5.686	-0.421041
5.687	-0.440984
5.688	-0.455424
5.689	-0.458758
5.69	-0.449483
5.691	-0.431473
5.692	-0.412049
5.693	-0.39811
5.694	-0.392759
5.695	-0.394498
5.696	-0.399069
5.697	-0.402191
5.698	-0.401473
5.699	-0.396951
5.7	-0.390405
5.701	-0.384244
5.702	-0.38079
5.703	-0.38206
5.704	-0.38968
5.705	-0.404657
5.706	-0.426428
5.707	-0.451492
5.708	-0.473618
5.709	-0.486682
5.71	-0.487932
5.711	-0.478802
5.712	-0.463136
5.713	-0.445073
5.714	-0.428169
5.715	-0.415155
5.716	-0.407377
5.717	-0.404528
5.718	-0.405551
5.719	-0.409668
5.72	-0.416023
5.721	-0.422421
5.722	-0.425212
5.723	-0.421606
5.724	-0.413078
5.725	-0.406129
5.726	-0.408097
5.727	-0.421047
5.728	-0.439719
5.729	-0.455421
5.73	-0.461909
5.731	-0.458565
5.732	-0.449695
5.733	-0.441623
5.734	-0.439422
5.735	-0.444581
5.736	-0.454862
5.737	-0.4666
5.738	-0.477494
5.739	-0.487465
5.74	-0.49784
5.741	-0.510382
5.742	-0.525479
5.743	-0.538553
5.744	-0.537438
5.745	-0.504936
5.746	-0.427704
5.747	-0.309151
5.748	-0.178887
5.749	-0.085358
5.75	-0.068047
5.751	-0.130429
5.752	-0.238965
5.753	-0.347535
5.754	-0.424225
5.755	-0.461562
5.756	-0.470218
5.757	-0.467056
5.758	-0.46563
5.759	-0.471862
5.76	-0.484993
5.761	-0.501456
5.762	-0.518006
5.763	-0.532909
5.764	-0.54655
5.765	-0.561572
5.766	-0.581019
5.767	-0.604966
5.768	-0.628886
5.769	-0.645814
5.77	-0.650475
5.771	-0.642024
5.772	-0.623987
5.773	-0.602291
5.774	-0.582799
5.775	-0.569447
5.776	-0.563594
5.777	-0.564501
5.778	-0.570369
5.779	-0.579301
5.78	-0.589813
5.781	-0.600693
5.782	-0.610677
5.783	-0.619123
5.784	-0.627342
5.785	-0.638389
5.786	-0.654642
5.787	-0.675255
5.788	-0.695574
5.789	-0.708854
5.79	-0.709654
5.791	-0.697213
5.792	-0.676409
5.793	-0.65516
5.794	-0.639966
5.795	-0.63299
5.796	-0.632624
5.797	-0.636068
5.798	-0.641094
5.799	-0.646267
5.8	-0.650817
5.801	-0.654621
5.802	-0.658048
5.803	-0.661782
5.804	-0.666886
5.805	-0.674883
5.806	-0.687269
5.807	-0.704021
5.808	-0.721971
5.809	-0.735191
5.81	-0.738079
5.811	-0.72875
5.812	-0.710135
5.813	-0.68851
5.814	-0.670511
5.815	-0.660093
5.816	-0.657084
5.817	-0.658068
5.818	-0.658765
5.819	-0.656395
5.82	-0.650727
5.821	-0.643272
5.822	-0.635675
5.823	-0.628959
5.824	-0.624126
5.825	-0.623175
5.826	-0.628969
5.827	-0.64307
5.828	-0.663098
5.829	-0.68262
5.83	-0.694329
5.831	-0.69402
5.832	-0.682455
5.833	-0.664346
5.834	-0.645703
5.835	-0.631265
5.836	-0.623015
5.837	-0.620108
5.838	-0.620006
5.839	-0.62012
5.84	-0.618922
5.841	-0.616074
5.842	-0.612012
5.843	-0.607557
5.844	-0.604037
5.845	-0.604015
5.846	-0.611009
5.847	-0.626794
5.848	-0.648295
5.849	-0.667757
5.85	-0.676748
5.851	-0.671118
5.852	-0.653487
5.853	-0.63166
5.854	-0.614086
5.855	-0.605415
5.856	-0.604959
5.857	-0.608482
5.858	-0.611467
5.859	-0.611729
5.86	-0.610396
5.861	-0.611162
5.862	-0.617846
5.863	-0.630533
5.864	-0.642122
5.865	-0.638266
5.866	-0.601936
5.867	-0.52141
5.868	-0.400979
5.869	-0.269982
5.87	-0.176639
5.871	-0.16082
5.872	-0.225971
5.873	-0.336963
5.874	-0.445275
5.875	-0.518108
5.876	-0.549597
5.877	-0.552781
5.878	-0.545532
5.879	-0.541153
5.88	-0.545374
5.881	-0.557268
5.882	-0.572042
5.883	-0.584583
5.884	-0.592838
5.885	-0.59956
5.886	-0.610648
5.887	-0.630508
5.888	-0.658052
5.889	-0.686426
5.89	-0.706333
5.891	-0.710868
5.892	-0.699329
5.893	-0.677647
5.894	-0.655067
5.895	-0.639318
5.896	-0.63331
5.897	-0.635
5.898	-0.63982
5.899	-0.643672
5.9	-0.644817
5.901	-0.644145
5.902	-0.643954
5.903	-0.646222
5.904	-0.651936
5.905	-0.661833
5.906	-0.676936
5.907	-0.69765
5.908	-0.722021
5.909	-0.744722
5.91	-0.758494
5.911	-0.758236
5.912	-0.744747
5.913	-0.724613
5.914	-0.706232
5.915	-0.69526
5.916	-0.692508
5.917	-0.695016
5.918	-0.698924
5.919	-0.702062
5.92	-0.704625
5.921	-0.707735
5.922	-0.711502
5.923	-0.714781
5.924	-0.716913
5.925	-0.719382
5.926	-0.725442
5.927	-0.737965
5.928	-0.757091
5.929	-0.779011
5.93	-0.796988
5.931	-0.804575
5.932	-0.798917
5.933	-0.782269
5.934	-0.761142
5.935	-0.743139
5.936	-0.733065
5.937	-0.731021
5.938	-0.733634
5.939	-0.736829
5.94	-0.737848
5.941	-0.735841
5.942	-0.731593
5.943	-0.727065
5.944	-0.72486
5.945	-0.727513
5.946	-0.73692
5.947	-0.754
5.948	-0.777689
5.949	-0.803613
5.95	-0.824735
5.951	-0.834678
5.952	-0.831449
5.953	-0.818748
5.954	-0.803743
5.955	-0.7928
5.956	-0.7885
5.957	-0.78976
5.958	-0.79379
5.959	-0.797872
5.96	-0.800411
5.961	-0.801383
5.962	-0.80202
5.963	-0.803792
5.964	-0.807445
5.965	-0.813156
5.966	-0.821684
5.967	-0.834591
5.968	-0.852344
5.969	-0.872153
5.97	-0.888237
5.971	-0.894506
5.972	-0.887806
5.973	-0.870074
5.974	-0.847916
5.975	-0.829341
5.976	-0.81968
5.977	-0.81944
5.978	-0.82542
5.979	-0.833889
5.98	-0.843203
5.981	-0.854034
5.982	-0.867581
5.983	-0.883586
5.984	-0.898882
5.985	-0.905984
5.986	-0.892668
5.987	-0.844733
5.988	-0.75347
5.989	-0.627204
5.99	-0.499198
5.991	-0.417466
5.992	-0.415627
5.993	-0.489151
5.994	-0.599659
5.995	-0.701763
5.996	-0.768441
5.997	-0.797885
5.998	-0.803766
5.999	-0.801766
6.0	-0.801952
6.001	-0.808038
6.002	-0.819706
6.003	-0.83462
6.004	-0.849865
6.005	-0.863691
6.006	-0.877035
6.007	-0.892939
6.008	-0.913501
6.009	-0.936659
6.01	-0.955821
6.011	-0.963517
6.012	-0.95669
6.013	-0.939098
6.014	-0.918906
6.015	-0.903836
6.016	-0.897553
6.017	-0.899133
6.018	-0.904922
6.019	-0.91121
6.02	-0.916338
6.021	-0.920936
6.022	-0.926368
6.023	-0.933083
6.024	-0.940532
6.025	-0.948626
6.026	-0.958914
6.027	-0.973766
6.028	-0.994113
6.029	-1.017615
6.03	-1.038642
6.031	-1.050425
6.032	-1.048508
6.033	-1.033436
6.034	-1.010994
6.035	-0.989728
6.036	-0.976814
6.037	-0.974582
6.038	-0.980298
6.039	-0.989304
6.04	-0.998389
6.041	-1.006556
6.042	-1.01358
6.043	-1.018892
6.044	-1.022254
6.045	-1.02525
6.046	-1.03146
6.047	-1.044506
6.048	-1.065256
6.049	-1.090077
6.05	-1.111494
6.051	-1.12165
6.052	-1.116713
6.053	-1.099228
6.054	-1.076879
6.055	-1.058488
6.056	-1.049639
6.057	-1.050418
6.058	-1.05637
6.059	-1.061606
6.06	-1.061836
6.061	-1.055986
6.062	-1.046219
6.063	-1.036487
6.064	-1.030311
6.065	-1.029345
6.066	-1.03381
6.067	-1.043789
6.068	-1.059285
6.069	-1.0785
6.07	-1.096458
6.071	-1.106378
6.072	-1.10338
6.073	-1.087717
6.074	-1.064958
6.075	-1.042767
6.076	-1.026525
6.077	-1.017051
6.078	-1.011741
6.079	-1.007445
6.08	-1.002599
6.081	-0.997394
6.082	-0.992333
6.083	-0.986862
6.084	-0.979688
6.085	-0.970665
6.086	-0.962332
6.087	-0.959203
6.088	-0.964728
6.089	-0.978065
6.09	-0.993333
6.091	-1.00201
6.092	-0.997111
6.093	-0.977283
6.094	-0.948471
6.095	-0.920941
6.096	-0.90302
6.097	-0.896543
6.098	-0.897467
6.099	-0.900041
6.1	-0.900774
6.101	-0.899963
6.102	-0.900537
6.103	-0.905328
6.104	-0.914165
6.105	-0.921451
6.106	-0.915348
6.107	-0.880444
6.108	-0.804438
6.109	-0.68756
6.11	-0.551673
6.111	-0.439749
6.112	-0.395826
6.113	-0.435817
6.114	-0.53636
6.115	-0.651821
6.116	-0.742306
6.117	-0.791031
6.118	-0.80348
6.119	-0.795562
6.12	-0.782494
6.121	-0.774006
6.122	-0.773992
6.123	-0.781428
6.124	-0.792214
6.125	-0.802455
6.126	-0.811439
6.127	-0.821764
6.128	-0.836151
6.129	-0.853332
6.13	-0.866261
6.131	-0.863666
6.132	-0.833461
6.133	-0.766257
6.134	-0.658315
6.135	-0.514162
6.136	-0.347562
6.137	-0.178194
6.138	-0.024628
6.139	0.102035
6.14	0.200462
6.141	0.277109
6.142	0.341568
6.143	0.401639
6.144	0.460166
6.145	0.514661
6.146	0.559646
6.147	0.590311
6.148	0.60568
6.149	0.610114
6.15	0.61206
6.151	0.619917
6.152	0.637539
6.153	0.662907
6.154	0.690544
6.155	0.71494
6.156	0.732866
6.157	0.744714
6.158	0.754861
6.159	0.769561
6.16	0.792523
6.161	0.822179
6.162	0.853668
6.163	0.882978
6.164	0.908837
6.165	0.931326
6.166	0.949445
6.167	0.960336
6.168	0.961416
6.169	0.953958
6.17	0.944521
6.171	0.941634
6.172	0.950035
6.173	0.967659
6.174	0.987468
6.175	1.00215
6.176	1.008678
6.177	1.009802
6.178	1.011501
6.179	1.018633
6.18	1.032441
6.181	1.051808
6.182	1.075803
6.183	1.1036
6.184	1.132234
6.185	1.156024
6.186	1.169202
6.187	1.16899
6.188	1.155973
6.189	1.132817
6.19	1.104199
6.191	1.077118
6.192	1.058917
6.193	1.053547
6.194	1.059385
6.195	1.070846
6.196	1.082384
6.197	1.09123
6.198	1.097006
6.199	1.1002
6.2	1.102087
6.201	1.10531
6.202	1.112877
6.203	1.126023
6.204	1.142938
6.205	1.159138
6.206	1.168967
6.207	1.167803
6.208	1.154682
6.209	1.13395
6.21	1.114019
6.211	1.10332
6.212	1.105819
6.213	1.11871
6.214	1.133987
6.215	1.143549
6.216	1.144449
6.217	1.139917
6.218	1.135692
6.219	1.135776
6.22	1.14097
6.221	1.14927
6.222	1.156677
6.223	1.159716
6.224	1.159865
6.225	1.166278
6.226	1.193268
6.227	1.252939
6.228	1.345592
6.229	1.452336
6.23	1.538113
6.231	1.569416
6.232	1.535674
6.233	1.455526
6.234	1.362924
6.235	1.286887
6.236	1.240614
6.237	1.222473
6.238	1.222423
6.239	1.228833
6.24	1.233454
6.241	1.233261
6.242	1.229553
6.243	1.225607
6.244	1.223807
6.245	1.223379
6.246	1.220501
6.247	1.210973
6.248	1.193304
6.249	1.170128
6.25	1.147372
6.251	1.131642
6.252	1.126979
6.253	1.132596
6.254	1.143222
6.255	1.152484
6.256	1.156887
6.257	1.156968
6.258	1.1553
6.259	1.154046
6.26	1.153963
6.261	1.154796
6.262	1.156133
6.263	1.15771
6.264	1.158966
6.265	1.158593
6.266	1.154624
6.267	1.145187
6.268	1.129961
6.269	1.111665
6.27	1.095893
6.271	1.088328
6.272	1.090938
6.273	1.100423
6.274	1.11059
6.275	1.116678
6.276	1.1178
6.277	1.115949
6.278	1.1137
6.279	1.112999
6.28	1.114717
6.281	1.118216
6.282	1.121744
6.283	1.123832
6.284	1.12421
6.285	1.12322
6.286	1.120465
6.287	1.114298
6.288	1.10319
6.289	1.088098
6.29	1.073299
6.291	1.064372
6.292	1.064717
6.293	1.073393
6.294	1.085881
6.295	1.096926
6.296	1.103103
6.297	1.103752
6.298	1.100472
6.299	1.095889
6.3	1.092546
6.301	1.092494
6.302	1.097255
6.303	1.107248
6.304	1.120795
6.305	1.133892
6.306	1.141238
6.307	1.138094
6.308	1.122531
6.309	1.097083
6.31	1.068442
6.311	1.044808
6.312	1.031937
6.313	1.03025
6.314	1.035418
6.315	1.042002
6.316	1.046626
6.317	1.048448
6.318	1.048178
6.319	1.047285
6.32	1.047305
6.321	1.048943
6.322	1.05155
6.323	1.053653
6.324	1.054081
6.325	1.052411
6.326	1.048209
6.327	1.040362
6.328	1.028102
6.329	1.012967
6.33	0.999252
6.331	0.992106
6.332	0.994399
6.333	1.004469
6.334	1.016853
6.335	1.025834
6.336	1.028738
6.337	1.026498
6.338	1.021946
6.339	1.017495
6.34	1.013616
6.341	1.008895
6.342	1.001361
6.343	0.990218
6.344	0.977957
6.345	0.972577
6.346	0.987697
6.347	1.038024
6.348	1.12995
6.349	1.250401
6.35	1.363074
6.351	1.423157
6.352	1.40559
6.353	1.322591
6.354	1.213965
6.355	1.120495
6.356	1.063419
6.357	1.041622
6.358	1.041095
6.359	1.046106
6.36	1.046271
6.361	1.038747
6.362	1.026626
6.363	1.015134
6.364	1.007672
6.365	1.00367
6.366	0.999064
6.367	0.988963
6.368	0.970956
6.369	0.947153
6.37	0.923756
6.371	0.907911
6.372	0.903382
6.373	0.908395
6.374	0.917424
6.375	0.924994
6.376	0.928376
6.377	0.927881
6.378	0.925518
6.379	0.923348
6.38	0.922383
6.381	0.922256
6.382	0.921605
6.383	0.919019
6.384	0.913837
6.385	0.90604
6.386	0.895602
6.387	0.882277
6.388	0.866054
6.389	0.847881
6.39	0.83024
6.391	0.816733
6.392	0.810324
6.393	0.8116
6.394	0.818515
6.395	0.827674
6.396	0.836044
6.397	0.841845
6.398	0.844297
6.399	0.843181
6.4	0.838904
6.401	0.832814
6.402	0.827053
6.403	0.823507
6.404	0.822482
6.405	0.82241
6.406	0.82094
6.407	0.816244
6.408	0.807368
6.409	0.794197
6.41	0.778032
6.411	0.76198
6.412	0.750039
6.413	0.74524
6.414	0.748101
6.415	0.756476
6.416	0.766745
6.417	0.775376
6.418	0.780056
6.419	0.780254
6.42	0.777126
6.421	0.772788
6.422	0.769381
6.423	0.768163
6.424	0.768978
6.425	0.770658
6.426	0.771951
6.427	0.77173
6.428	0.768556
6.429	0.761099
6.43	0.749353
6.431	0.734933
6.432	0.720086
6.433	0.706726
6.434	0.696355
6.435	0.69026
6.436	0.689124
6.437	0.692236
6.438	0.697414
6.439	0.702055
6.44	0.704496
6.441	0.70461
6.442	0.703336
6.443	0.701626
6.444	0.699821
6.445	0.698005
6.446	0.696307
6.447	0.694334
6.448	0.690591
6.449	0.683042
6.45	0.670587
6.451	0.654533
6.452	0.638999
6.453	0.62933
6.454	0.629186
6.455	0.63843
6.456	0.653207
6.457	0.667887
6.458	0.677605
6.459	0.680163
6.46	0.676455
6.461	0.669407
6.462	0.662102
6.463	0.655941
6.464	0.649744
6.465	0.640594
6.466	0.626459
6.467	0.609895
6.468	0.601176
6.469	0.617554
6.47	0.67615
6.471	0.78204
6.472	0.917061
6.473	1.038743
6.474	1.098499
6.475	1.072183
6.476	0.976982
6.477	0.858012
6.478	0.75862
6.479	0.699947
6.48	0.679557
6.481	0.681737
6.482	0.68898
6.483	0.689336
6.484	0.678985
6.485	0.660979
6.486	0.641314
6.487	0.624547
6.488	0.61156
6.489	0.600225
6.49	0.587626
6.491	0.572227
6.492	0.554889
6.493	0.538676
6.494	0.527827
6.495	0.525795
6.496	0.532779
6.497	0.545013
6.498	0.557151
6.499	0.565352
6.5	0.568343
6.501	0.566941
6.502	0.563233
6.503	0.559361
6.504	0.556381
6.505	0.55397
6.506	0.550889
6.507	0.545875
6.508	0.53825
6.509	0.527495
6.51	0.512882
6.511	0.494529
6.512	0.474858
6.513	0.458444
6.514	0.449924
6.515	0.451461
6.516	0.461538
6.517	0.475794
6.518	0.489218
6.519	0.498253
6.52	0.501883
6.521	0.501437
6.522	0.499208
6.523	0.496759
6.524	0.494131
6.525	0.490363
6.526	0.484703
6.527	0.477485
6.528	0.469757
6.529	0.462052
6.53	0.4539
6.531	0.44441
6.532	0.432963
6.533	0.419959
6.534	0.407624
6.535	0.399653
6.536	0.399151
6.537	0.406401
6.538	0.418496
6.539	0.431125
6.54	0.440929
6.541	0.446605
6.542	0.448475
6.543	0.447629
6.544	0.445562
6.545	0.444133
6.546	0.445076
6.547	0.448824
6.548	0.45364
6.549	0.456235
6.55	0.453536
6.551	0.444005
6.552	0.428073
6.553	0.40839
6.554	0.389495
6.555	0.376175
6.556	0.37128
6.557	0.374469
6.558	0.382452
6.559	0.390543
6.56	0.395014
6.561	0.394935
6.562	0.392117
6.563	0.389237
6.564	0.387759
6.565	0.387357
6.566	0.386935
6.567	0.385757
6.568	0.383522
6.569	0.379811
6.57	0.373792
6.571	0.364459
6.572	0.351427
6.573	0.335938
6.574	0.321062
6.575	0.310735
6.576	0.308166
6.577	0.314085
6.578	0.325763
6.579	0.338178
6.58	0.347015
6.581	0.350919
6.582	0.351097
6.583	0.349207
6.584	0.345841
6.585	0.340525
6.586	0.332132
6.587	0.319221
6.588	0.301816
6.589	0.285111
6.59	0.281949
6.591	0.309909
6.592	0.382443
6.593	0.497632
6.594	0.630102
6.595	0.734718
6.596	0.768444
6.597	0.71844
6.598	0.61097
6.599	0.492865
6.6	0.403392
6.601	0.35747
6.602	0.346906
6.603	0.352986
6.604	0.359327
6.605	0.357956
6.606	0.348608
6.607	0.334912
6.608	0.320667
6.609	0.307597
6.61	0.294791
6.611	0.279738
6.612	0.260589
6.613	0.238251
6.614	0.216825
6.615	0.202008
6.616	0.198231
6.617	0.206125
6.618	0.221935
6.619	0.239312
6.62	0.252337
6.621	0.258088
6.622	0.257536
6.623	0.254075
6.624	0.250668
6.625	0.248061
6.626	0.245229
6.627	0.240991
6.628	0.23529
6.629	0.229103
6.63	0.223092
6.631	0.216445
6.632	0.207039
6.633	0.192926
6.634	0.17464
6.635	0.156537
6.636	0.144911
6.637	0.143748
6.638	0.152163
6.639	0.165811
6.64	0.180109
6.641	0.191994
6.642	0.199763
6.643	0.202616
6.644	0.200856
6.645	0.196044
6.646	0.190183
6.647	0.184577
6.648	0.179594
6.649	0.175069
6.65	0.170422
6.651	0.164463
6.652	0.155401
6.653	0.141778
6.654	0.124384
6.655	0.107324
6.656	0.09626
6.657	0.094889
6.658	0.102795
6.659	0.116037
6.66	0.129371
6.661	0.138726
6.662	0.142823
6.663	0.143106
6.664	0.142242
6.665	0.142479
6.666	0.144853
6.667	0.149345
6.668	0.155251
6.669	0.161129
6.67	0.164718
6.671	0.163562
6.672	0.156031
6.673	0.141991
6.674	0.123068
6.675	0.102654
6.676	0.085196
6.677	0.074637
6.678	0.072748
6.679	0.078334
6.68	0.087958
6.681	0.097761
6.682	0.104882
6.683	0.107752
6.684	0.106086
6.685	0.101024
6.686	0.094802
6.687	0.089599
6.688	0.086497
6.689	0.085546
6.69	0.086286
6.691	0.087471
6.692	0.086317
6.693	0.079223
6.694	0.064574
6.695	0.045214
6.696	0.027838
6.697	0.019324
6.698	0.022646
6.699	0.035182
6.7	0.050633
6.701	0.062908
6.702	0.069022
6.703	0.069627
6.704	0.0676
6.705	0.065695
6.706	0.064555
6.707	0.062305
6.708	0.055887
6.709	0.043469
6.71	0.027388
6.711	0.016563
6.712	0.026261
6.713	0.073246
6.714	0.166105
6.715	0.293581
6.716	0.419329
6.717	0.494796
6.718	0.48844
6.719	0.40757
6.72	0.292142
6.721	0.187769
6.722	0.121668
6.723	0.096293
6.724	0.097881
6.725	0.108845
6.726	0.11617
6.727	0.114328
6.728	0.104134
6.729	0.089462
6.73	0.073942
6.731	0.059076
6.732	0.044067
6.733	0.026826
6.734	0.005748
6.735	-0.018081
6.736	-0.039728
6.737	-0.052383
6.738	-0.051679
6.739	-0.038553
6.74	-0.018348
6.741	0.002236
6.742	0.017807
6.743	0.02574
6.744	0.026454
6.745	0.022498
6.746	0.016747
6.747	0.010875
6.748	0.005235
6.749	-1.3e-05
6.75	-0.004226
6.751	-0.007303
6.752	-0.011329
6.753	-0.020293
6.754	-0.037075
6.755	-0.059942
6.756	-0.082025
6.757	-0.095057
6.758	-0.094434
6.759	-0.081398
6.76	-0.061652
6.761	-0.042362
6.762	-0.02897
6.763	-0.023113
6.764	-0.022987
6.765	-0.025462
6.766	-0.028012
6.767	-0.029557
6.768	-0.030399
6.769	-0.031572
6.77	-0.034097
6.771	-0.038703
6.772	-0.045948
6.773	-0.056305
6.774	-0.069917
6.775	-0.085819
6.776	-0.101086
6.777	-0.111315
6.778	-0.112807
6.779	-0.104833
6.78	-0.090344
6.781	-0.074559
6.782	-0.062105
6.783	-0.054878
6.784	-0.052142
6.785	-0.051856
6.786	-0.051778
6.787	-0.050271
6.788	-0.046861
6.789	-0.042061
6.79	-0.03675
6.791	-0.032138
6.792	-0.030321
6.793	-0.034243
6.794	-0.046294
6.795	-0.066294
6.796	-0.090605
6.797	-0.113265
6.798	-0.128317
6.799	-0.132187
6.8	-0.125265
6.801	-0.111641
6.802	-0.096973
6.803	-0.085999
6.804	-0.080952
6.805	-0.081131
6.806	-0.08383
6.807	-0.086437
6.808	-0.088079
6.809	-0.089416
6.81	-0.091258
6.811	-0.09375
6.812	-0.096877
6.813	-0.101538
6.814	-0.10959
6.815	-0.122183
6.816	-0.137726
6.817	-0.15153
6.818	-0.157778
6.819	-0.152929
6.82	-0.138329
6.821	-0.119741
6.822	-0.103877
6.823	-0.094746
6.824	-0.092298
6.825	-0.093667
6.826	-0.095736
6.827	-0.097377
6.828	-0.100044
6.829	-0.106617
6.83	-0.119218
6.831	-0.136296
6.832	-0.149839
6.833	-0.145115
6.834	-0.105132
6.835	-0.019469
6.836	0.105027
6.837	0.23732
6.838	0.329945
6.839	0.345295
6.84	0.281621
6.841	0.173724
6.842	0.068372
6.843	-0.002808
6.844	-0.03384
6.845	-0.037267
6.846	-0.030775
6.847	-0.027596
6.848	-0.033117
6.849	-0.04588
6.85	-0.060678
6.851	-0.072458
6.852	-0.079847
6.853	-0.086202
6.854	-0.097037
6.855	-0.115617
6.856	-0.140052
6.857	-0.163742
6.858	-0.178654
6.859	-0.179456
6.86	-0.166233
6.861	-0.144385
6.862	-0.121943
6.863	-0.10577
6.864	-0.098686
6.865	-0.099201
6.866	-0.103703
6.867	-0.108997
6.868	-0.113576
6.869	-0.11763
6.87	-0.122155
6.871	-0.127715
6.872	-0.134001
6.873	-0.140763
6.874	-0.149082
6.875	-0.1611
6.876	-0.177631
6.877	-0.195783
6.878	-0.209524
6.879	-0.213307
6.88	-0.205719
6.881	-0.190328
6.882	-0.173289
6.883	-0.15968
6.884	-0.151371
6.885	-0.147486
6.886	-0.14616
6.887	-0.145756
6.888	-0.145322
6.889	-0.144688
6.89	-0.144001
6.891	-0.143164
6.892	-0.142374
6.893	-0.143156
6.894	-0.148211
6.895	-0.159659
6.896	-0.176979
6.897	-0.196226
6.898	-0.211184
6.899	-0.216058
6.9	-0.208437
6.901	-0.19091
6.902	-0.170107
6.903	-0.153525
6.904	-0.145877
6.905	-0.1469
6.906	-0.151912
6.907	-0.155035
6.908	-0.152815
6.909	-0.145364
6.91	-0.134715
6.911	-0.123095
6.912	-0.112888
6.913	-0.107226
6.914	-0.109645
6.915	-0.122407
6.916	-0.144423
6.917	-0.170556
6.918	-0.193339
6.919	-0.206236
6.92	-0.206655
6.921	-0.196936
6.922	-0.182563
6.923	-0.169038
6.924	-0.159681
6.925	-0.155117
6.926	-0.153966
6.927	-0.154278
6.928	-0.154927
6.929	-0.155795
6.93	-0.156891
6.931	-0.1578
6.932	-0.158005
6.933	-0.157813
6.934	-0.159217
6.935	-0.165348
6.936	-0.178111
6.937	-0.195832
6.938	-0.213016
6.939	-0.222706
6.94	-0.220231
6.941	-0.206088
6.942	-0.185898
6.943	-0.167322
6.944	-0.155997
6.945	-0.152982
6.946	-0.155188
6.947	-0.158381
6.948	-0.160311
6.949	-0.16153
6.95	-0.164083
6.951	-0.169645
6.952	-0.177525
6.953	-0.182257
6.954	-0.17206
6.955	-0.131221
6.956	-0.048221
6.957	0.072277
6.958	0.200844
6.959	0.290542
6.96	0.303758
6.961	0.238629
6.962	0.129543
6.963	0.022495
6.964	-0.051297
6.965	-0.085179
6.966	-0.090282
6.967	-0.083246
6.968	-0.077237
6.969	-0.078354
6.97	-0.086333
6.971	-0.097485
6.972	-0.107962
6.973	-0.116269
6.974	-0.1241
6.975	-0.135024
6.976	-0.151795
6.977	-0.173697
6.978	-0.195603
6.979	-0.210141
6.98	-0.212116
6.981	-0.201863
6.982	-0.184732
6.983	-0.167572
6.984	-0.155242
6.985	-0.149033
6.986	-0.147232
6.987	-0.147086
6.988	-0.146751
6.989	-0.146102
6.99	-0.146129
6.991	-0.147399
6.992	-0.149243
6.993	-0.150877
6.994	-0.153325
6.995	-0.159694
6.996	-0.173049
6.997	-0.193426
6.998	-0.216163
6.999	-0.233124
7.0	-0.236831
7.001	-0.225084
7.002	-0.202683
7.003	-0.178687
7.004	-0.161152
7.005	-0.153314
7.006	-0.153447
7.007	-0.157397
7.008	-0.161391
7.009	-0.163533
7.01	-0.163625
7.011	-0.162258
7.012	-0.160567
7.013	-0.160646
7.014	-0.16527
7.015	-0.176606
7.016	-0.194825
7.017	-0.217276
7.018	-0.238618
7.019	-0.252391
7.02	-0.253844
7.021	-0.242421
7.022	-0.222221
7.023	-0.200071
7.024	-0.182338
7.025	-0.172329
7.026	-0.169488
7.027	-0.170387
7.028	-0.170958
7.029	-0.168746
7.03	-0.163587
7.031	-0.156558
7.032	-0.148749
7.033	-0.141124
7.034	-0.135435
7.035	-0.13489
7.036	-0.143053
7.037	-0.161067
7.038	-0.185466
7.039	-0.209031
7.04	-0.224548
7.041	-0.228603
7.042	-0.22269
7.043	-0.211399
7.044	-0.19959
7.045	-0.190377
7.046	-0.184465
7.047	-0.180799
7.048	-0.178117
7.049	-0.175928
7.05	-0.173962
7.051	-0.171469
7.052	-0.167824
7.053	-0.16371
7.054	-0.161562
7.055	-0.164869
7.056	-0.176339
7.057	-0.195662
7.058	-0.218429
7.059	-0.237238
7.06	-0.244772
7.061	-0.237595
7.062	-0.218603
7.063	-0.19601
7.064	-0.178801
7.065	-0.171603
7.066	-0.172702
7.067	-0.176445
7.068	-0.1779
7.069	-0.17606
7.07	-0.173684
7.071	-0.174898
7.072	-0.182216
7.073	-0.193531
7.074	-0.199971
7.075	-0.186496
7.076	-0.136799
7.077	-0.04259
7.078	0.085106
7.079	0.210475
7.08	0.285212
7.081	0.277812
7.082	0.196139
7.083	0.081292
7.084	-0.020375
7.085	-0.082168
7.086	-0.103268
7.087	-0.098997
7.088	-0.087288
7.089	-0.080253
7.09	-0.082192
7.091	-0.091372
7.092	-0.10294
7.093	-0.112106
7.094	-0.117335
7.095	-0.121795
7.096	-0.131237
7.097	-0.149486
7.098	-0.174966
7.099	-0.200664
7.1	-0.217615
7.101	-0.219972
7.102	-0.208222
7.103	-0.188522
7.104	-0.169173
7.105	-0.156513
7.106	-0.152196
7.107	-0.153539
7.108	-0.156471
7.109	-0.158237
7.11	-0.157939
7.111	-0.155726
7.112	-0.152298
7.113	-0.149174
7.114	-0.14897
7.115	-0.154676
7.116	-0.168104
7.117	-0.188656
7.118	-0.21276
7.119	-0.233916
7.12	-0.244665
7.121	-0.240737
7.122	-0.224227
7.123	-0.20264
7.124	-0.184412
7.125	-0.174282
7.126	-0.171741
7.127	-0.173072
7.128	-0.174593
7.129	-0.174649
7.13	-0.173687
7.131	-0.17289
7.132	-0.172615
7.133	-0.172263
7.134	-0.171719
7.135	-0.172633
7.136	-0.178001
7.137	-0.190066
7.138	-0.207831
7.139	-0.226252
7.14	-0.238543
7.141	-0.240205
7.142	-0.23146
7.143	-0.216569
7.144	-0.201197
7.145	-0.18957
7.146	-0.182825
7.147	-0.179288
7.148	-0.176123
7.149	-0.17122
7.15	-0.164273
7.151	-0.156302
7.152	-0.148311
7.153	-0.140823
7.154	-0.134786
7.155	-0.132534
7.156	-0.137557
7.157	-0.15266
7.158	-0.177044
7.159	-0.204669
7.16	-0.226451
7.161	-0.235321
7.162	-0.230202
7.163	-0.216078
7.164	-0.200467
7.165	-0.189071
7.166	-0.18368
7.167	-0.183146
7.168	-0.185371
7.169	-0.188156
7.17	-0.189203
7.171	-0.186723
7.172	-0.180628
7.173	-0.173009
7.174	-0.167417
7.175	-0.167563
7.176	-0.176093
7.177	-0.193466
7.178	-0.216737
7.179	-0.239461
7.18	-0.254184
7.181	-0.25625
7.182	-0.246038
7.183	-0.228346
7.184	-0.209671
7.185	-0.19517
7.186	-0.187058
7.187	-0.184604
7.188	-0.18515
7.189	-0.186238
7.19	-0.187685
7.191	-0.191558
7.192	-0.200198
7.193	-0.213813
7.194	-0.227974
7.195	-0.231607
7.196	-0.208225
7.197	-0.143083
7.198	-0.034956
7.199	0.093956
7.2	0.200352
7.201	0.241038
7.202	0.201621
7.203	0.106594
7.204	0.000422
7.205	-0.081013
7.206	-0.124596
7.207	-0.136111
7.208	-0.129742
7.209	-0.11971
7.21	-0.115312
7.211	-0.11925
7.212	-0.12928
7.213	-0.1413
7.214	-0.152144
7.215	-0.161528
7.216	-0.172155
7.217	-0.187625
7.218	-0.209066
7.219	-0.232546
7.22	-0.25002
7.221	-0.253923
7.222	-0.242108
7.223	-0.219907
7.224	-0.197556
7.225	-0.183855
7.226	-0.180812
7.227	-0.183853
7.228	-0.186996
7.229	-0.187467
7.23	-0.185679
7.231	-0.182978
7.232	-0.181058
7.233	-0.182055
7.234	-0.187801
7.235	-0.199299
7.236	-0.216399
7.237	-0.236888
7.238	-0.256405
7.239	-0.270132
7.24	-0.274427
7.241	-0.267733
7.242	-0.251796
7.243	-0.231684
7.244	-0.213187
7.245	-0.200054
7.246	-0.193285
7.247	-0.191698
7.248	-0.192986
7.249	-0.195195
7.25	-0.197537
7.251	-0.199931
7.252	-0.20201
7.253	-0.202774
7.254	-0.201633
7.255	-0.1999
7.256	-0.2007
7.257	-0.207227
7.258	-0.220527
7.259	-0.23738
7.26	-0.250315
7.261	-0.251891
7.262	-0.240406
7.263	-0.221253
7.264	-0.202729
7.265	-0.190515
7.266	-0.185264
7.267	-0.184155
7.268	-0.183775
7.269	-0.181499
7.27	-0.175402
7.271	-0.164407
7.272	-0.149328
7.273	-0.133645
7.274	-0.122524
7.275	-0.120292
7.276	-0.128399
7.277	-0.145474
7.278	-0.168405
7.279	-0.192447
7.28	-0.211378
7.281	-0.219819
7.282	-0.216438
7.283	-0.204578
7.284	-0.189625
7.285	-0.175655
7.286	-0.164002
7.287	-0.154216
7.288	-0.145754
7.289	-0.138643
7.29	-0.133208
7.291	-0.12972
7.292	-0.127964
7.293	-0.127164
7.294	-0.12692
7.295	-0.128244
7.296	-0.133378
7.297	-0.144209
7.298	-0.159989
7.299	-0.17627
7.3	-0.186871
7.301	-0.187755
7.302	-0.17936
7.303	-0.165656
7.304	-0.151425
7.305	-0.139972
7.306	-0.132238
7.307	-0.127441
7.308	-0.124467
7.309	-0.122808
7.31	-0.122841
7.311	-0.125546
7.312	-0.131215
7.313	-0.13723
7.314	-0.136326
7.315	-0.117424
7.316	-0.07022
7.317	0.007232
7.318	0.101236
7.319	0.182448
7.32	0.219363
7.321	0.198611
7.322	0.134137
7.323	0.056675
7.324	-0.005817
7.325	-0.0406
7.326	-0.050074
7.327	-0.044803
7.328	-0.03613
7.329	-0.031324
7.33	-0.032253
7.331	-0.036853
7.332	-0.041586
7.333	-0.043777
7.334	-0.043177
7.335	-0.042133
7.336	-0.044315
7.337	-0.052375
7.338	-0.065667
7.339	-0.079846
7.34	-0.089168
7.341	-0.089861
7.342	-0.082046
7.343	-0.06901
7.344	-0.055003
7.345	-0.043427
7.346	-0.036039
7.347	-0.032846
7.348	-0.032564
7.349	-0.033773
7.35	-0.03602
7.351	-0.039551
7.352	-0.043986
7.353	-0.047885
7.354	-0.050047
7.355	-0.051237
7.356	-0.054402
7.357	-0.062592
7.358	-0.076111
7.359	-0.091587
7.36	-0.103738
7.361	-0.108259
7.362	-0.103814
7.363	-0.092193
7.364	-0.077114
7.365	-0.062743
7.366	-0.052281
7.367	-0.04679
7.368	-0.044972
7.369	-0.044315
7.37	-0.042639
7.371	-0.038917
7.372	-0.033607
7.373	-0.028598
7.374	-0.026276
7.375	-0.028157
7.376	-0.034396
7.377	-0.044278
7.378	-0.056571
7.379	-0.069197
7.38	-0.079029
7.381	-0.082952
7.382	-0.079798
7.383	-0.07119
7.384	-0.060509
7.385	-0.051134
7.386	-0.045084
7.387	-0.042401
7.388	-0.041589
7.389	-0.040955
7.39	-0.03953
7.391	-0.036779
7.392	-0.032148
7.393	-0.025449
7.394	-0.017536
7.395	-0.01038
7.396	-0.006372
7.397	-0.007486
7.398	-0.014884
7.399	-0.028669
7.4	-0.047255
7.401	-0.066994
7.402	-0.082915
7.403	-0.090551
7.404	-0.088254
7.405	-0.078454
7.406	-0.066203
7.407	-0.055928
7.408	-0.049497
7.409	-0.046835
7.41	-0.047244
7.411	-0.049769
7.412	-0.052816
7.413	-0.054236
7.414	-0.052456
7.415	-0.047742
7.416	-0.042374
7.417	-0.039648
7.418	-0.042295
7.419	-0.050801
7.42	-0.062595
7.421	-0.073048
7.422	-0.077751
7.423	-0.074677
7.424	-0.065295
7.425	-0.053804
7.426	-0.044508
7.427	-0.039401
7.428	-0.037897
7.429	-0.037887
7.43	-0.036918
7.431	-0.033669
7.432	-0.029455
7.433	-0.028179
7.434	-0.033844
7.435	-0.0464
7.436	-0.058292
7.437	-0.054493
7.438	-0.017303
7.439	0.064557
7.44	0.184456
7.441	0.310796
7.442	0.39611
7.443	0.404046
7.444	0.33419
7.445	0.221586
7.446	0.112397
7.447	0.037984
7.448	0.004888
7.449	0.001116
7.45	0.00892
7.451	0.014739
7.452	0.012913
7.453	0.004457
7.454	-0.006474
7.455	-0.016174
7.456	-0.02358
7.457	-0.030534
7.458	-0.040188
7.459	-0.054548
7.46	-0.072876
7.461	-0.091878
7.462	-0.107108
7.463	-0.114654
7.464	-0.11283
7.465	-0.103262
7.466	-0.090234
7.467	-0.078501
7.468	-0.070973
7.469	-0.067702
7.47	-0.066863
7.471	-0.06663
7.472	-0.066233
7.473	-0.065946
7.474	-0.066503
7.475	-0.068411
7.476	-0.071884
7.477	-0.0775
7.478	-0.086362
7.479	-0.098883
7.48	-0.113381
7.481	-0.126329
7.482	-0.134331
7.483	-0.135983
7.484	-0.132151
7.485	-0.124915
7.486	-0.116452
7.487	-0.108548
7.488	-0.102298
7.489	-0.097797
7.49	-0.094391
7.491	-0.091382
7.492	-0.088574
7.493	-0.086466
7.494	-0.085885
7.495	-0.087111
7.496	-0.089638
7.497	-0.093082
7.498	-0.097976
7.499	-0.105394
7.5	-0.115905
7.501	-0.128727
7.502	-0.141363
7.503	-0.149931
7.504	-0.150652
7.505	-0.142263
7.506	-0.127484
7.507	-0.1116
7.508	-0.099143
7.509	-0.092051
7.51	-0.090287
7.511	-0.092609
7.512	-0.096483
7.513	-0.098486
7.514	-0.095926
7.515	-0.088521
7.516	-0.078632
7.517	-0.06984
7.518	-0.065155
7.519	-0.066097
7.52	-0.072829
7.521	-0.084493
7.522	-0.099058
7.523	-0.113096
7.524	-0.122627
7.525	-0.125183
7.526	-0.121369
7.527	-0.114269
7.528	-0.107244
7.529	-0.102168
7.53	-0.098965
7.531	-0.09625
7.532	-0.093069
7.533	-0.090347
7.534	-0.089953
7.535	-0.092383
7.536	-0.096106
7.537	-0.099176
7.538	-0.100998
7.539	-0.102591
7.54	-0.105562
7.541	-0.110827
7.542	-0.117795
7.543	-0.124313
7.544	-0.127553
7.545	-0.125535
7.546	-0.118183
7.547	-0.107281
7.548	-0.095853
7.549	-0.08722
7.55	-0.083398
7.551	-0.083915
7.552	-0.086462
7.553	-0.088827
7.554	-0.090544
7.555	-0.09338
7.556	-0.100071
7.557	-0.111195
7.558	-0.1215
7.559	-0.118338
7.56	-0.084672
7.561	-0.007162
7.562	0.112823
7.563	0.250377
7.564	0.359957
7.565	0.397429
7.566	0.349297
7.567	0.242268
7.568	0.123894
7.569	0.033514
7.57	-0.013784
7.571	-0.024864
7.572	-0.016739
7.573	-0.005576
7.574	-0.001122
7.575	-0.005916
7.576	-0.017142
7.577	-0.029725
7.578	-0.039838
7.579	-0.047049
7.58	-0.053767
7.581	-0.062893
7.582	-0.075644
7.583	-0.090548
7.584	-0.103863
7.585	-0.111193
7.586	-0.109574
7.587	-0.099252
7.588	-0.084046
7.589	-0.069282
7.59	-0.05864
7.591	-0.052763
7.592	-0.050357
7.593	-0.050152
7.594	-0.051848
7.595	-0.055456
7.596	-0.060215
7.597	-0.064773
7.598	-0.068471
7.599	-0.072052
7.6	-0.07714
7.601	-0.08529
7.602	-0.096831
7.603	-0.109684
7.604	-0.1196
7.605	-0.12245
7.606	-0.116735
7.607	-0.104375
7.608	-0.08956
7.609	-0.076613
7.61	-0.068351
7.611	-0.065651
7.612	-0.067461
7.613	-0.071065
7.614	-0.073457
7.615	-0.073156
7.616	-0.070784
7.617	-0.068175
7.618	-0.067154
7.619	-0.068829
7.62	-0.073597
7.621	-0.081666
7.622	-0.092974
7.623	-0.106151
7.624	-0.11798
7.625	-0.124495
7.626	-0.123014
7.627	-0.113706
7.628	-0.099539
7.629	-0.084596
7.63	-0.072084
7.631	-0.063278
7.632	-0.05772
7.633	-0.054267
7.634	-0.051882
7.635	-0.049557
7.636	-0.046257
7.637	-0.041749
7.638	-0.037178
7.639	-0.034056
7.64	-0.033038
7.641	-0.034464
7.642	-0.039514
7.643	-0.049722
7.644	-0.06504
7.645	-0.082489
7.646	-0.096827
7.647	-0.103178
7.648	-0.099828
7.649	-0.089015
7.65	-0.075241
7.651	-0.062659
7.652	-0.053505
7.653	-0.048223
7.654	-0.04621
7.655	-0.046192
7.656	-0.046672
7.657	-0.046736
7.658	-0.046345
7.659	-0.04596
7.66	-0.046535
7.661	-0.049774
7.662	-0.057328
7.663	-0.069046
7.664	-0.082136
7.665	-0.092239
7.666	-0.095536
7.667	-0.09039
7.668	-0.077867
7.669	-0.061432
7.67	-0.045955
7.671	-0.035716
7.672	-0.032136
7.673	-0.033197
7.674	-0.035319
7.675	-0.03614
7.676	-0.036237
7.677	-0.038854
7.678	-0.047431
7.679	-0.061658
7.68	-0.074191
7.681	-0.070519
7.682	-0.033306
7.683	0.049473
7.684	0.174299
7.685	0.313631
7.686	0.419831
7.687	0.449451
7.688	0.392789
7.689	0.280868
7.69	0.163598
7.691	0.079779
7.692	0.041278
7.693	0.03685
7.694	0.046331
7.695	0.053466
7.696	0.051292
7.697	0.040709
7.698	0.02635
7.699	0.012819
7.7	0.002275
7.701	-0.006318
7.702	-0.016194
7.703	-0.030361
7.704	-0.048855
7.705	-0.067665
7.706	-0.080422
7.707	-0.081947
7.708	-0.071447
7.709	-0.053272
7.71	-0.034548
7.711	-0.021235
7.712	-0.015385
7.713	-0.015108
7.714	-0.016724
7.715	-0.017553
7.716	-0.017366
7.717	-0.017575
7.718	-0.019479
7.719	-0.023456
7.72	-0.029289
7.721	-0.036774
7.722	-0.046076
7.723	-0.057437
7.724	-0.070334
7.725	-0.08287
7.726	-0.092019
7.727	-0.094668
7.728	-0.089165
7.729	-0.076524
7.73	-0.060212
7.731	-0.044427
7.732	-0.032126
7.733	-0.024137
7.734	-0.019758
7.735	-0.018062
7.736	-0.018594
7.737	-0.021107
7.738	-0.025118
7.739	-0.029759
7.74	-0.033981
7.741	-0.037498
7.742	-0.041953
7.743	-0.050452
7.744	-0.06511
7.745	-0.084568
7.746	-0.103736
7.747	-0.116355
7.748	-0.118575
7.749	-0.110749
7.75	-0.096513
7.751	-0.080651
7.752	-0.067392
7.753	-0.059567
7.754	-0.058141
7.755	-0.061763
7.756	-0.066913
7.757	-0.069562
7.758	-0.067696
7.759	-0.062372
7.76	-0.056474
7.761	-0.052963
7.762	-0.053996
7.763	-0.060471
7.764	-0.071853
7.765	-0.086408
7.766	-0.101431
7.767	-0.113609
7.768	-0.120078
7.769	-0.119828
7.77	-0.114457
7.771	-0.107509
7.772	-0.102364
7.773	-0.100169
7.774	-0.099626
7.775	-0.098715
7.776	-0.096612
7.777	-0.094175
7.778	-0.092967
7.779	-0.093886
7.78	-0.096554
7.781	-0.099945
7.782	-0.103563
7.783	-0.108069
7.784	-0.114998
7.785	-0.125425
7.786	-0.138047
7.787	-0.148747
7.788	-0.152777
7.789	-0.147732
7.79	-0.134874
7.791	-0.118332
7.792	-0.103165
7.793	-0.093365
7.794	-0.090357
7.795	-0.092487
7.796	-0.096387
7.797	-0.099942
7.798	-0.104106
7.799	-0.111538
7.8	-0.123561
7.801	-0.137572
7.802	-0.145267
7.803	-0.132621
7.804	-0.083695
7.805	0.011019
7.806	0.143188
7.807	0.278947
7.808	0.36831
7.809	0.374254
7.81	0.298625
7.811	0.180238
7.812	0.068128
7.813	-0.005934
7.814	-0.036904
7.815	-0.038419
7.816	-0.029159
7.817	-0.02305
7.818	-0.025801
7.819	-0.036279
7.82	-0.05019
7.821	-0.063523
7.822	-0.074433
7.823	-0.083639
7.824	-0.093637
