time_s,mv
0.0,0.00867
0.001,0.009807
0.002,0.009725
0.003,0.008745
0.004,0.007321
0.005,0.005844
0.006,0.004486
0.007,0.003143
0.008,0.001724
0.009,0.000524
0.01,8.4e-05
0.011,0.000613
0.012,0.001693
0.013,0.002621
0.014,0.003065
0.015,0.003421
0.016,0.004465
0.017,0.006554
0.018,0.009145
0.019,0.011101
0.02,0.01152
0.021,0.010309
0.022,0.008063
0.023,0.005588
0.024,0.003663
0.025,0.003276
0.026,0.006065
0.027,0.014057
0.028,0.027879
0.029,0.044609
0.03,0.058774
0.031,0.067394
0.032,0.073863
0.033,0.085084
0.034,0.103858
0.035,0.124104
0.036,0.133804
0.037,0.123704
0.038,0.094597
0.039,0.056969
0.04,0.023938
0.041,0.003976
0.042,-0.001707
0.043,0.002834
0.044,0.011934
0.045,0.021019
0.046,0.02758
0.047,0.031
0.048,0.031965
0.049,0.03177
0.05,0.031535
0.051,0.031642
0.052,0.031785
0.053,0.031474
0.054,0.030573
0.055,0.02957
0.056,0.0294
0.057,0.030758
0.058,0.033389
0.059,0.036188
0.06,0.038126
0.061,0.038919
0.062,0.038771
0.063,0.037816
0.064,0.03597
0.065,0.033104
0.066,0.02922
0.067,0.024644
0.068,0.02009
0.069,0.016323
0.07,0.013656
0.071,0.011851
0.072,0.010434
0.073,0.009048
0.074,0.007653
0.075,0.00658
0.076,0.006354
0.077,0.007276
0.078,0.009101
0.079,0.011137
0.08,0.012678
0.081,0.013377
0.082,0.01324
0.083,0.012441
0.084,0.011158
0.085,0.009474
0.086,0.007455
0.087,0.005305
0.088,0.003364
0.089,0.001922
0.09,0.001072
0.091,0.000688
0.092,0.000525
0.093,0.000373
0.094,0.000264
0.095,0.000601
0.096,0.001894
0.097,0.004182
0.098,0.00668
0.099,0.008051
0.1,0.007113
0.101,0.003495
0.102,-0.002018
0.103,-0.007434
0.104,-0.010105
0.105,-0.008283
0.106,-0.002652
0.107,0.003839
0.108,0.007878
0.109,0.007832
0.11,0.004353
0.111,-0.000663
0.112,-0.005502
0.113,-0.009173
0.114,-0.011176
0.115,-0.011324
0.116,-0.009909
0.117,-0.0077
0.118,-0.005422
0.119,-0.003343
0.12,-0.001454
0.121,0.000131
0.122,0.001071
0.123,0.000992
0.124,-0.000244
0.125,-0.002377
0.126,-0.00475
0.127,-0.006635
0.128,-0.007748
0.129,-0.008432
0.13,-0.009271
0.131,-0.010502
0.132,-0.011739
0.133,-0.012197
0.134,-0.011264
0.135,-0.00898
0.136,-0.00605
0.137,-0.003457
0.138,-0.001944
0.139,-0.001642
0.14,-0.001969
0.141,-0.001727
0.142,0.000794
0.143,0.007574
0.144,0.019777
0.145,0.035879
0.146,0.051355
0.147,0.061968
0.148,0.068055
0.149,0.074551
0.15,0.085904
0.151,0.100737
0.152,0.111075
0.153,0.107325
0.154,0.085829
0.155,0.05255
0.156,0.019329
0.157,-0.003557
0.158,-0.012238
0.159,-0.009074
0.16,0.000596
0.161,0.011667
0.162,0.020842
0.163,0.02669
0.164,0.029124
0.165,0.028914
0.166,0.02722
0.167,0.025068
0.168,0.022989
0.169,0.021046
0.17,0.019143
0.171,0.017383
0.172,0.01625
0.173,0.016454
0.174,0.018373
0.175,0.021652
0.176,0.025376
0.177,0.028536
0.178,0.030431
0.179,0.030842
0.18,0.029943
0.181,0.02802
0.182,0.025264
0.183,0.021755
0.184,0.017572
0.185,0.013024
0.186,0.008729
0.187,0.005274
0.188,0.002788
0.189,0.000931
0.19,-0.000765
0.191,-0.002512
0.192,-0.004122
0.193,-0.005139
0.194,-0.005095
0.195,-0.003771
0.196,-0.001408
0.197,0.001234
0.198,0.003147
0.199,0.003638
0.2,0.002824
0.201,0.001521
0.202,0.000484
0.203,-0.000212
0.204,-0.001053
0.205,-0.002514
0.206,-0.004648
0.207,-0.007046
0.208,-0.00912
0.209,-0.010471
0.21,-0.011059
0.211,-0.011103
0.212,-0.01083
0.213,-0.010396
0.214,-0.010142
0.215,-0.010794
0.216,-0.013072
0.217,-0.016861
0.218,-0.020646
0.219,-0.021832
0.22,-0.01831
0.221,-0.010401
0.222,-0.001139
0.223,0.005629
0.224,0.007591
0.225,0.004899
0.226,-0.000599
0.227,-0.006805
0.228,-0.012283
0.229,-0.016375
0.23,-0.019
0.231,-0.020447
0.232,-0.021093
0.233,-0.02109
0.234,-0.020269
0.235,-0.018301
0.236,-0.01505
0.237,-0.010925
0.238,-0.006938
0.239,-0.004319
0.24,-0.003741
0.241,-0.00481
0.242,-0.006503
0.243,-0.008123
0.244,-0.009774
0.245,-0.012044
0.246,-0.015268
0.247,-0.018972
0.248,-0.022016
0.249,-0.023457
0.25,-0.023268
0.251,-0.022222
0.252,-0.021286
0.253,-0.021083
0.254,-0.021577
0.255,-0.022064
0.256,-0.021454
0.257,-0.018476
0.258,-0.01159
0.259,0.000713
0.26,0.018296
0.261,0.037785
0.262,0.054104
0.263,0.064843
0.264,0.072503
0.265,0.081558
0.266,0.093198
0.267,0.102678
0.268,0.101745
0.269,0.084971
0.27,0.054847
0.271,0.020775
0.272,-0.0068
0.273,-0.021828
0.274,-0.024145
0.275,-0.017462
0.276,-0.006458
0.277,0.004993
0.278,0.014287
0.279,0.020052
0.28,0.02216
0.281,0.021665
0.282,0.020231
0.283,0.019115
0.284,0.018471
0.285,0.017617
0.286,0.016012
0.287,0.013951
0.288,0.012339
0.289,0.011934
0.29,0.012838
0.291,0.014484
0.292,0.015973
0.293,0.016573
0.294,0.016119
0.295,0.015022
0.296,0.013816
0.297,0.012665
0.298,0.011245
0.299,0.009071
0.3,0.005965
0.301,0.002292
0.302,-0.001265
0.303,-0.004198
0.304,-0.006454
0.305,-0.008302
0.306,-0.01
0.307,-0.011568
0.308,-0.012755
0.309,-0.013141
0.31,-0.012384
0.311,-0.010622
0.312,-0.008627
0.313,-0.007387
0.314,-0.007453
0.315,-0.008594
0.316,-0.010038
0.317,-0.011129
0.318,-0.011816
0.319,-0.012558
0.32,-0.013818
0.321,-0.01557
0.322,-0.017253
0.323,-0.018237
0.324,-0.01829
0.325,-0.017661
0.326,-0.016808
0.327,-0.016119
0.328,-0.015872
0.329,-0.016431
0.33,-0.018363
0.331,-0.022076
0.332,-0.027007
0.333,-0.031172
0.334,-0.031993
0.335,-0.028132
0.336,-0.02074
0.337,-0.012916
0.338,-0.007899
0.339,-0.007327
0.34,-0.010683
0.341,-0.016031
0.342,-0.021296
0.343,-0.02522
0.344,-0.027571
0.345,-0.028793
0.346,-0.029536
0.347,-0.030232
0.348,-0.030767
0.349,-0.030515
0.35,-0.028853
0.351,-0.025795
0.352,-0.022174
0.353,-0.019199
0.354,-0.0177
0.355,-0.017615
0.356,-0.018202
0.357,-0.018838
0.358,-0.0196
0.359,-0.02111
0.36,-0.023834
0.361,-0.027468
0.362,-0.030968
0.363,-0.033198
0.364,-0.033661
0.365,-0.032756
0.366,-0.031423
0.367,-0.030492
0.368,-0.030243
0.369,-0.030384
0.37,-0.030214
0.371,-0.028717
0.372,-0.024518
0.373,-0.015957
0.374,-0.002
0.375,0.016028
0.376,0.034033
0.377,0.047907
0.378,0.057224
0.379,0.06549
0.38,0.076153
0.381,0.08819
0.382,0.095207
0.383,0.089287
0.384,0.067272
0.385,0.034249
0.386,0.000856
0.387,-0.023123
0.388,-0.033423
0.389,-0.031553
0.39,-0.022151
0.391,-0.010168
0.392,0.000718
0.393,0.008477
0.394,0.012484
0.395,0.013224
0.396,0.011975
0.397,0.010182
0.398,0.008671
0.399,0.007376
0.4,0.005835
0.401,0.003853
0.402,0.001819
0.403,0.000529
0.404,0.000609
0.405,0.002
0.406,0.003963
0.407,0.005545
0.408,0.006086
0.409,0.005484
0.41,0.004109
0.411,0.002458
0.412,0.000816
0.413,-0.000919
0.414,-0.003133
0.415,-0.006084
0.416,-0.009619
0.417,-0.013344
0.418,-0.016962
0.419,-0.020396
0.42,-0.023631
0.421,-0.02652
0.422,-0.028767
0.423,-0.030059
0.424,-0.030162
0.425,-0.02901
0.426,-0.026862
0.427,-0.024372
0.428,-0.022322
0.429,-0.021135
0.43,-0.020639
0.431,-0.020326
0.432,-0.019881
0.433,-0.019491
0.434,-0.019677
0.435,-0.020837
0.436,-0.022914
0.437,-0.025396
0.438,-0.027613
0.439,-0.029156
0.44,-0.030047
0.441,-0.030543
0.442,-0.030855
0.443,-0.03103
0.444,-0.031175
0.445,-0.031845
0.446,-0.033848
0.447,-0.037298
0.448,-0.040817
0.449,-0.041917
0.45,-0.038638
0.451,-0.03127
0.452,-0.022557
0.453,-0.016059
0.454,-0.014038
0.455,-0.01646
0.456,-0.02161
0.457,-0.027455
0.458,-0.032538
0.459,-0.0361
0.46,-0.037918
0.461,-0.038236
0.462,-0.037712
0.463,-0.037093
0.464,-0.036675
0.465,-0.036134
0.466,-0.035005
0.467,-0.033279
0.468,-0.031503
0.469,-0.030366
0.47,-0.03014
0.471,-0.030506
0.472,-0.03093
0.473,-0.03114
0.474,-0.031241
0.475,-0.031531
0.476,-0.032293
0.477,-0.033576
0.478,-0.035033
0.479,-0.036033
0.48,-0.036155
0.481,-0.035667
0.482,-0.035385
0.483,-0.035992
0.484,-0.037504
0.485,-0.039265
0.486,-0.040212
0.487,-0.038906
0.488,-0.033371
0.489,-0.021736
0.49,-0.004154
0.491,0.015799
0.492,0.032976
0.493,0.044906
0.494,0.053776
0.495,0.06366
0.496,0.075728
0.497,0.085592
0.498,0.085239
0.499,0.069078
0.5,0.039256
0.501,0.005022
0.502,-0.023001
0.503,-0.038456
0.504,-0.041074
0.505,-0.034743
0.506,-0.02436
0.507,-0.013856
0.508,-0.005743
0.509,-0.001192
0.51,-6e-06
0.511,-0.000828
0.512,-0.001967
0.513,-0.002393
0.514,-0.002177
0.515,-0.002098
0.516,-0.002767
0.517,-0.004067
0.518,-0.005337
0.519,-0.005918
0.52,-0.005523
0.521,-0.004385
0.522,-0.003165
0.523,-0.002589
0.524,-0.003048
0.525,-0.00442
0.526,-0.006228
0.527,-0.008044
0.528,-0.009821
0.529,-0.011814
0.53,-0.014211
0.531,-0.016854
0.532,-0.019294
0.533,-0.021185
0.534,-0.022629
0.535,-0.024098
0.536,-0.025954
0.537,-0.028026
0.538,-0.029689
0.539,-0.030359
0.54,-0.029872
0.541,-0.02854
0.542,-0.027023
0.543,-0.02601
0.544,-0.025786
0.545,-0.026029
0.546,-0.02606
0.547,-0.025406
0.548,-0.024228
0.549,-0.023248
0.55,-0.023152
0.551,-0.023953
0.552,-0.024979
0.553,-0.025546
0.554,-0.025555
0.555,-0.025417
0.556,-0.02547
0.557,-0.025667
0.558,-0.025922
0.559,-0.02657
0.56,-0.028309
0.561,-0.031619
0.562,-0.036128
0.563,-0.040252
0.564,-0.041606
0.565,-0.038487
0.566,-0.031461
0.567,-0.023373
0.568,-0.017602
0.569,-0.016097
0.57,-0.018638
0.571,-0.023515
0.572,-0.02867
0.573,-0.032525
0.574,-0.034403
0.575,-0.034535
0.576,-0.033736
0.577,-0.032957
0.578,-0.03278
0.579,-0.033046
0.58,-0.033045
0.581,-0.032208
0.582,-0.030721
0.583,-0.029441
0.584,-0.029123
0.585,-0.029801
0.586,-0.030887
0.587,-0.031717
0.588,-0.032081
0.589,-0.032359
0.59,-0.033121
0.591,-0.034542
0.592,-0.036191
0.593,-0.037353
0.594,-0.037567
0.595,-0.036921
0.596,-0.03593
0.597,-0.035178
0.598,-0.035021
0.599,-0.035394
0.6,-0.035738
0.601,-0.035109
0.602,-0.032241
0.603,-0.025495
0.604,-0.013506
0.605,0.003094
0.606,0.020736
0.607,0.035135
0.608,0.045234
0.609,0.054174
0.61,0.065676
0.611,0.079324
0.612,0.089019
0.613,0.086323
0.614,0.066889
0.615,0.034706
0.616,9.8e-05
0.617,-0.026602
0.618,-0.040201
0.619,-0.041451
0.62,-0.034576
0.621,-0.024341
0.622,-0.014391
0.623,-0.006821
0.624,-0.002292
0.625,-0.000304
0.626,0.000397
0.627,0.001089
0.628,0.002247
0.629,0.003378
0.63,0.003676
0.631,0.002781
0.632,0.001069
0.633,-0.000582
0.634,-0.001332
0.635,-0.000919
0.636,0.000135
0.637,0.000797
0.638,0.00016
0.639,-0.001925
0.64,-0.004779
0.641,-0.007472
0.642,-0.009525
0.643,-0.011145
0.644,-0.01293
0.645,-0.015297
0.646,-0.018069
0.647,-0.020608
0.648,-0.02238
0.649,-0.023373
0.65,-0.024046
0.651,-0.02491
0.652,-0.026064
0.653,-0.027063
0.654,-0.027279
0.655,-0.026452
0.656,-0.024947
0.657,-0.023573
0.658,-0.023098
0.659,-0.023754
0.66,-0.025081
0.661,-0.026223
0.662,-0.02653
0.663,-0.026058
0.664,-0.02555
0.665,-0.02579
0.666,-0.026897
0.667,-0.028242
0.668,-0.029025
0.669,-0.028892
0.67,-0.028094
0.671,-0.027219
0.672,-0.026789
0.673,-0.027081
0.674,-0.028355
0.675,-0.031022
0.676,-0.035302
0.677,-0.040593
0.678,-0.045136
0.679,-0.046541
0.68,-0.043288
0.681,-0.03613
0.682,-0.027953
0.683,-0.022081
0.684,-0.020374
0.685,-0.022492
0.686,-0.02662
0.687,-0.03076
0.688,-0.03361
0.689,-0.034765
0.69,-0.034531
0.691,-0.033677
0.692,-0.033062
0.693,-0.033111
0.694,-0.033516
0.695,-0.03357
0.696,-0.032946
0.697,-0.03213
0.698,-0.032044
0.699,-0.033179
0.7,-0.035137
0.701,-0.036996
0.702,-0.038088
0.703,-0.03852
0.704,-0.039066
0.705,-0.040499
0.706,-0.042847
0.707,-0.045215
0.708,-0.04638
0.709,-0.045764
0.71,-0.043934
0.711,-0.042191
0.712,-0.041658
0.713,-0.042622
0.714,-0.044498
0.715,-0.046203
0.716,-0.046536
0.717,-0.044215
0.718,-0.037748
0.719,-0.026032
0.72,-0.009991
0.721,0.006677
0.722,0.019941
0.723,0.029304
0.724,0.03831
0.725,0.050474
0.726,0.064651
0.727,0.074006
0.728,0.069984
0.729,0.049013
0.73,0.016251
0.731,-0.017266
0.732,-0.041279
0.733,-0.051203
0.734,-0.048611
0.735,-0.038489
0.736,-0.026041
0.737,-0.014989
0.738,-0.007339
0.739,-0.003611
0.74,-0.002977
0.741,-0.003721
0.742,-0.004259
0.743,-0.004079
0.744,-0.003802
0.745,-0.00437
0.746,-0.006082
0.747,-0.008198
0.748,-0.009357
0.749,-0.008571
0.75,-0.006041
0.751,-0.003071
0.752,-0.001176
0.753,-0.001195
0.754,-0.002943
0.755,-0.005471
0.756,-0.007732
0.757,-0.009347
0.758,-0.010866
0.759,-0.013147
0.76,-0.016342
0.761,-0.019622
0.762,-0.021943
0.763,-0.023016
0.764,-0.023492
0.765,-0.024309
0.766,-0.025895
0.767,-0.027846
0.768,-0.02927
0.769,-0.029511
0.77,-0.028611
0.771,-0.027187
0.772,-0.025995
0.773,-0.025525
0.774,-0.025749
0.775,-0.026121
0.776,-0.025975
0.777,-0.025182
0.778,-0.024469
0.779,-0.024878
0.78,-0.02676
0.781,-0.029365
0.782,-0.031498
0.783,-0.032511
0.784,-0.032679
0.785,-0.032709
0.786,-0.03302
0.787,-0.033533
0.788,-0.034163
0.789,-0.03534
0.79,-0.03782
0.791,-0.041741
0.792,-0.045684
0.793,-0.047022
0.794,-0.043805
0.795,-0.036486
0.796,-0.027815
0.797,-0.021114
0.798,-0.018453
0.799,-0.019933
0.8,-0.024146
0.801,-0.029102
0.802,-0.03303
0.803,-0.03502
0.804,-0.035339
0.805,-0.035122
0.806,-0.035523
0.807,-0.036901
0.808,-0.038612
0.809,-0.039568
0.81,-0.039112
0.811,-0.037542
0.812,-0.035914
0.813,-0.035221
0.814,-0.035603
0.815,-0.036286
0.816,-0.036326
0.817,-0.035481
0.818,-0.034482
0.819,-0.034495
0.82,-0.036094
0.821,-0.038599
0.822,-0.040528
0.823,-0.040801
0.824,-0.039644
0.825,-0.038467
0.826,-0.038726
0.827,-0.040697
0.828,-0.043283
0.829,-0.044889
0.83,-0.044253
0.831,-0.040364
0.832,-0.031959
0.833,-0.01817
0.834,-0.000438
0.835,0.017019
0.836,0.030288
0.837,0.039627
0.838,0.049252
0.839,0.062676
0.84,0.078081
0.841,0.087868
0.842,0.083392
0.843,0.061741
0.844,0.0286
0.845,-0.005306
0.846,-0.030499
0.847,-0.042755
0.848,-0.043241
0.849,-0.03612
0.85,-0.025949
0.851,-0.016242
0.852,-0.009046
0.853,-0.004943
0.854,-0.003339
0.855,-0.003001
0.856,-0.002691
0.857,-0.001795
0.858,-0.00065
0.859,-0.00013
0.86,-0.000716
0.861,-0.001956
0.862,-0.002819
0.863,-0.002574
0.864,-0.00142
0.865,-0.000347
0.866,-0.000366
0.867,-0.001814
0.868,-0.004217
0.869,-0.006656
0.87,-0.008387
0.871,-0.009388
0.872,-0.010318
0.873,-0.011866
0.874,-0.014151
0.875,-0.016639
0.876,-0.018514
0.877,-0.019314
0.878,-0.019406
0.879,-0.019813
0.88,-0.021358
0.881,-0.023879
0.882,-0.026302
0.883,-0.027486
0.884,-0.027135
0.885,-0.026049
0.886,-0.025457
0.887,-0.025978
0.888,-0.027163
0.889,-0.027985
0.89,-0.027717
0.891,-0.026462
0.892,-0.02505
0.893,-0.024451
0.894,-0.025078
0.895,-0.026467
0.896,-0.027585
0.897,-0.027653
0.898,-0.026821
0.899,-0.02604
0.9,-0.026155
0.901,-0.02722
0.902,-0.028808
0.903,-0.030812
0.904,-0.03357
0.905,-0.037105
0.906,-0.040286
0.907,-0.040978
0.908,-0.037491
0.909,-0.030165
0.91,-0.021435
0.911,-0.01437
0.912,-0.011049
0.913,-0.011784
0.914,-0.015402
0.915,-0.02014
0.916,-0.024403
0.917,-0.027163
0.918,-0.028197
0.919,-0.028106
0.92,-0.027845
0.921,-0.027971
0.922,-0.028233
0.923,-0.027887
0.924,-0.026497
0.925,-0.024512
0.926,-0.023024
0.927,-0.022852
0.928,-0.023819
0.929,-0.024877
0.93,-0.024908
0.931,-0.023614
0.932,-0.021819
0.933,-0.020841
0.934,-0.021395
0.935,-0.023007
0.936,-0.024373
0.937,-0.024343
0.938,-0.02279
0.939,-0.020786
0.94,-0.019884
0.941,-0.020957
0.942,-0.023461
0.943,-0.025789
0.944,-0.02629
0.945,-0.023696
0.946,-0.016686
0.947,-0.004109
0.948,0.013198
0.949,0.031363
0.95,0.045971
0.951,0.056276
0.952,0.066069
0.953,0.079531
0.954,0.09607
0.955,0.108896
0.956,0.108855
0.957,0.091128
0.958,0.059352
0.959,0.023635
0.96,-0.005359
0.961,-0.021414
0.962,-0.024133
0.963,-0.017251
0.964,-0.006008
0.965,0.004979
0.966,0.012935
0.967,0.017165
0.968,0.018555
0.969,0.018696
0.97,0.018952
0.971,0.019771
0.972,0.020568
0.973,0.020283
0.974,0.018306
0.975,0.015161
0.976,0.012368
0.977,0.011434
0.978,0.01268
0.979,0.014947
0.98,0.016511
0.981,0.016395
0.982,0.014943
0.983,0.013283
0.984,0.012347
0.985,0.012263
0.986,0.012384
0.987,0.011784
0.988,0.009909
0.989,0.007008
0.99,0.003983
0.991,0.001671
0.992,0.000134
0.993,-0.001357
0.994,-0.003607
0.995,-0.006587
0.996,-0.009174
0.997,-0.009994
0.998,-0.008655
0.999,-0.006128
1.0,-0.003947
1.001,-0.003006
1.002,-0.003008
1.003,-0.00302
1.004,-0.002473
1.005,-0.001629
1.006,-0.001224
1.007,-0.001831
1.008,-0.003526
1.009,-0.005872
1.01,-0.008077
1.011,-0.009446
1.012,-0.009892
1.013,-0.009979
1.014,-0.010434
1.015,-0.011663
1.016,-0.013645
1.017,-0.016133
1.018,-0.018912
1.019,-0.021793
1.02,-0.024122
1.021,-0.024351
1.022,-0.02083
1.023,-0.013488
1.024,-0.004515
1.025,0.002799
1.026,0.005978
1.027,0.004512
1.028,-0.000346
1.029,-0.006574
1.03,-0.01223
1.031,-0.015971
1.032,-0.017469
1.033,-0.017488
1.034,-0.017367
1.035,-0.018045
1.036,-0.019295
1.037,-0.019941
1.038,-0.019014
1.039,-0.016724
1.04,-0.014274
1.041,-0.012722
1.042,-0.012078
1.043,-0.011483
1.044,-0.010165
1.045,-0.008161
1.046,-0.006351
1.047,-0.005886
1.048,-0.007343
1.049,-0.010172
1.05,-0.01297
1.051,-0.014456
1.052,-0.014364
1.053,-0.013565
1.054,-0.013355
1.055,-0.014437
1.056,-0.01637
1.057,-0.017952
1.058,-0.018013
1.059,-0.01562
1.06,-0.00958
1.061,0.001536
1.062,0.017751
1.063,0.036053
1.064,0.051964
1.065,0.063729
1.066,0.074213
1.067,0.087674
1.068,0.104476
1.069,0.118678
1.07,0.120913
1.071,0.105025
1.072,0.073323
1.073,0.035789
1.074,0.004082
1.075,-0.014468
1.076,-0.018886
1.077,-0.012865
1.078,-0.001866
1.079,0.009205
1.08,0.01725
1.081,0.021314
1.082,0.022272
1.083,0.022026
1.084,0.022376
1.085,0.024066
1.086,0.026509
1.087,0.028339
1.088,0.028409
1.089,0.026659
1.09,0.024298
1.091,0.023007
1.092,0.023579
1.093,0.025196
1.094,0.026072
1.095,0.024931
1.096,0.021986
1.097,0.018628
1.098,0.016243
1.099,0.015264
1.1,0.015105
1.101,0.014741
1.102,0.013419
1.103,0.011179
1.104,0.008775
1.105,0.006911
1.106,0.005578
1.107,0.004176
1.108,0.002198
1.109,-0.000184
1.11,-0.002083
1.111,-0.002521
1.112,-0.00125
1.113,0.00092
1.114,0.002618
1.115,0.002922
1.116,0.002046
1.117,0.00108
1.118,0.001041
1.119,0.002089
1.12,0.003497
1.121,0.004243
1.122,0.003781
1.123,0.002528
1.124,0.0016
1.125,0.001914
1.126,0.003402
1.127,0.005023
1.128,0.005562
1.129,0.0045
1.13,0.002149
1.131,-0.000959
1.132,-0.004662
1.133,-0.00902
1.134,-0.013404
1.135,-0.015933
1.136,-0.014491
1.137,-0.008624
1.138,-0.000341
1.139,0.006995
1.14,0.010695
1.141,0.010093
1.142,0.006444
1.143,0.001866
1.144,-0.001779
1.145,-0.003611
1.146,-0.003983
1.147,-0.004077
1.148,-0.004933
1.149,-0.006591
1.15,-0.008085
1.151,-0.008257
1.152,-0.006725
1.153,-0.004345
1.154,-0.002783
1.155,-0.003341
1.156,-0.005969
1.157,-0.009344
1.158,-0.011897
1.159,-0.012926
1.16,-0.012953
1.161,-0.013127
1.162,-0.014137
1.163,-0.015532
1.164,-0.01605
1.165,-0.014735
1.166,-0.01192
1.167,-0.009168
1.168,-0.008193
1.169,-0.009639
1.17,-0.012617
1.171,-0.015298
1.172,-0.015953
1.173,-0.013378
1.174,-0.006559
1.175,0.005183
1.176,0.020805
1.177,0.036795
1.178,0.049424
1.179,0.058507
1.18,0.068005
1.181,0.081765
1.182,0.09839
1.183,0.11024
1.184,0.108003
1.185,0.087695
1.186,0.05432
1.187,0.01889
1.188,-0.00824
1.189,-0.02204
1.19,-0.023198
1.191,-0.015802
1.192,-0.004716
1.193,0.005999
1.194,0.013692
1.195,0.017368
1.196,0.0177
1.197,0.016488
1.198,0.015574
1.199,0.015845
1.2,0.01692
1.201,0.017746
1.202,0.017617
1.203,0.016824
1.204,0.01644
1.205,0.017417
1.206,0.019749
1.207,0.022347
1.208,0.023708
1.209,0.022916
1.21,0.02026
1.211,0.016983
1.212,0.014292
1.213,0.012435
1.214,0.010633
1.215,0.007942
1.216,0.004199
1.217,0.00022
1.218,-0.002886
1.219,-0.004633
1.22,-0.005457
1.221,-0.006185
1.222,-0.007234
1.223,-0.008292
1.224,-0.008625
1.225,-0.007665
1.226,-0.005517
1.227,-0.003084
1.228,-0.001625
1.229,-0.001964
1.23,-0.003848
1.231,-0.00604
1.232,-0.007264
1.233,-0.007204
1.234,-0.00667
1.235,-0.006811
1.236,-0.008067
1.237,-0.009768
1.238,-0.010719
1.239,-0.010158
1.24,-0.00827
1.241,-0.005991
1.242,-0.004369
1.243,-0.003968
1.244,-0.004814
1.245,-0.00681
1.246,-0.010003
1.247,-0.01427
1.248,-0.018556
1.249,-0.020699
1.25,-0.018707
1.251,-0.012585
1.252,-0.004777
1.253,0.001293
1.254,0.003206
1.255,0.000669
1.256,-0.004655
1.257,-0.010284
1.258,-0.01422
1.259,-0.015625
1.26,-0.01491
1.261,-0.013433
1.262,-0.012634
1.263,-0.012998
1.264,-0.013798
1.265,-0.013944
1.266,-0.013051
1.267,-0.011788
1.268,-0.011371
1.269,-0.012562
1.27,-0.014861
1.271,-0.016765
1.272,-0.017041
1.273,-0.015788
1.274,-0.014327
1.275,-0.014044
1.276,-0.015197
1.277,-0.016748
1.278,-0.017444
1.279,-0.017011
1.28,-0.016178
1.281,-0.015874
1.282,-0.016611
1.283,-0.01828
1.284,-0.020069
1.285,-0.020641
1.286,-0.018696
1.287,-0.013504
1.288,-0.004714
1.289,0.007919
1.29,0.023591
1.291,0.039392
1.292,0.051922
1.293,0.060787
1.294,0.069484
1.295,0.081872
1.296,0.097453
1.297,0.109745
1.298,0.109757
1.299,0.092742
1.3,0.06259
1.301,0.029646
1.302,0.004231
1.303,-0.008513
1.304,-0.009577
1.305,-0.003664
1.306,0.004325
1.307,0.011531
1.308,0.016863
1.309,0.019698
1.31,0.020069
1.311,0.019676
1.312,0.020871
1.313,0.024183
1.314,0.02765
1.315,0.028588
1.316,0.025907
1.317,0.021086
1.318,0.016897
1.319,0.01504
1.32,0.01529
1.321,0.01666
1.322,0.018452
1.323,0.020107
1.324,0.02095
1.325,0.020654
1.326,0.019779
1.327,0.01925
1.328,0.019104
1.329,0.018669
1.33,0.018325
1.331,0.019723
1.332,0.023219
1.333,0.025925
1.334,0.024059
1.335,0.017779
1.336,0.012339
1.337,0.01309
1.338,0.019447
1.339,0.025206
1.34,0.025638
1.341,0.022676
1.342,0.021537
1.343,0.023778
1.344,0.026406
1.345,0.0273
1.346,0.02788
1.347,0.029606
1.348,0.031367
1.349,0.031899
1.35,0.031938
1.351,0.032555
1.352,0.0335
1.353,0.034508
1.354,0.036572
1.355,0.040509
1.356,0.045454
1.357,0.04986
1.358,0.052762
1.359,0.053412
1.36,0.05121
1.361,0.047397
1.362,0.045848
1.363,0.050384
1.364,0.061075
1.365,0.073665
1.366,0.082101
1.367,0.081823
1.368,0.072484
1.369,0.058525
1.37,0.046481
1.371,0.040935
1.372,0.04205
1.373,0.046248
1.374,0.04958
1.375,0.050589
1.376,0.050027
1.377,0.049115
1.378,0.048862
1.379,0.049895
1.38,0.052007
1.381,0.054499
1.382,0.057263
1.383,0.060783
1.384,0.064811
1.385,0.067838
1.386,0.068399
1.387,0.066506
1.388,0.063557
1.389,0.061234
1.39,0.060594
1.391,0.061887
1.392,0.064711
1.393,0.067965
1.394,0.06998
1.395,0.069471
1.396,0.066718
1.397,0.063608
1.398,0.062508
1.399,0.065284
1.4,0.072865
1.401,0.084178
1.402,0.094546
1.403,0.096894
1.404,0.088043
1.405,0.075176
1.406,0.073406
1.407,0.093495
1.408,0.130622
1.409,0.165484
1.41,0.177635
1.411,0.159795
1.412,0.1213
1.413,0.079503
1.414,0.04819
1.415,0.032062
1.416,0.028634
1.417,0.032925
1.418,0.040647
1.419,0.048978
1.42,0.056178
1.421,0.061316
1.422,0.064432
1.423,0.066501
1.424,0.068636
1.425,0.071062
1.426,0.072869
1.427,0.072806
1.428,0.070457
1.429,0.066855
1.43,0.063986
1.431,0.063481
1.432,0.065423
1.433,0.06822
1.434,0.069766
1.435,0.068964
1.436,0.066328
1.437,0.063259
1.438,0.060877
1.439,0.059449
1.44,0.058454
1.441,0.057069
1.442,0.054949
1.443,0.052664
1.444,0.051206
1.445,0.050867
1.446,0.050682
1.447,0.049202
1.448,0.045824
1.449,0.041399
1.45,0.037694
1.451,0.036189
1.452,0.037043
1.453,0.038953
1.454,0.040061
1.455,0.039257
1.456,0.036857
1.457,0.034136
1.458,0.032246
1.459,0.031452
1.46,0.031132
1.461,0.030378
1.462,0.028757
1.463,0.026653
1.464,0.024811
1.465,0.023521
1.466,0.022304
1.467,0.020438
1.468,0.01782
1.469,0.015384
1.47,0.01453
1.471,0.01581
1.472,0.01809
1.473,0.019286
1.474,0.018249
1.475,0.016074
1.476,0.015259
1.477,0.017259
1.478,0.02087
1.479,0.023059
1.48,0.021374
1.481,0.015701
1.482,0.008078
1.483,0.001199
1.484,-0.003093
1.485,-0.004524
1.486,-0.004177
1.487,-0.00367
1.488,-0.004216
1.489,-0.005943
1.49,-0.007816
1.491,-0.008414
1.492,-0.007062
1.493,-0.004364
1.494,-0.001699
1.495,-0.000192
1.496,2.9e-05
1.497,-0.000241
1.498,-0.000118
1.499,0.000507
1.5,0.000906
1.501,0.000231
1.502,-0.001709
1.503,-0.004187
1.504,-0.006025
1.505,-0.006551
1.506,-0.006218
1.507,-0.006225
1.508,-0.00749
1.509,-0.009907
1.51,-0.01244
1.511,-0.013877
1.512,-0.013373
1.513,-0.010142
1.514,-0.002897
1.515,0.009441
1.516,0.025571
1.517,0.040875
1.518,0.050667
1.519,0.055602
1.52,0.062545
1.521,0.078068
1.522,0.100526
1.523,0.118896
1.524,0.120103
1.525,0.098859
1.526,0.06173
1.527,0.022352
1.528,-0.007276
1.529,-0.022107
1.53,-0.023619
1.531,-0.016576
1.532,-0.006095
1.533,0.003832
1.534,0.010796
1.535,0.014147
1.536,0.014827
1.537,0.014543
1.538,0.014649
1.539,0.015463
1.54,0.016321
1.541,0.016245
1.542,0.014823
1.543,0.012728
1.544,0.011336
1.545,0.011614
1.546,0.013264
1.547,0.015001
1.548,0.015667
1.549,0.015034
1.55,0.013694
1.551,0.012354
1.552,0.011281
1.553,0.010276
1.554,0.008947
1.555,0.00697
1.556,0.004286
1.557,0.001202
1.558,-0.00177
1.559,-0.004309
1.56,-0.006502
1.561,-0.008612
1.562,-0.010657
1.563,-0.012229
1.564,-0.012771
1.565,-0.012055
1.566,-0.010422
1.567,-0.008579
1.568,-0.007162
1.569,-0.006414
1.57,-0.006173
1.571,-0.006163
1.572,-0.006334
1.573,-0.006922
1.574,-0.008203
1.575,-0.010205
1.576,-0.012642
1.577,-0.015121
1.578,-0.017416
1.579,-0.019507
1.58,-0.021418
1.581,-0.023075
1.582,-0.02421
1.583,-0.024335
1.584,-0.022973
1.585,-0.020181
1.586,-0.016938
1.587,-0.014883
1.588,-0.015472
1.589,-0.018977
1.59,-0.023864
1.591,-0.02718
1.592,-0.026323
1.593,-0.021077
1.594,-0.014016
1.595,-0.008844
1.596,-0.008103
1.597,-0.011897
1.598,-0.018314
1.599,-0.024937
1.6,-0.030113
1.601,-0.033253
1.602,-0.034446
1.603,-0.034028
1.604,-0.032454
1.605,-0.030283
1.606,-0.027984
1.607,-0.02572
1.608,-0.023495
1.609,-0.021491
1.61,-0.020126
1.611,-0.019746
1.612,-0.020288
1.613,-0.02128
1.614,-0.022243
1.615,-0.023048
1.616,-0.023903
1.617,-0.025078
1.618,-0.026632
1.619,-0.02836
1.62,-0.029936
1.621,-0.03111
1.622,-0.031769
1.623,-0.031896
1.624,-0.031599
1.625,-0.031175
1.626,-0.030924
1.627,-0.030775
1.628,-0.030021
1.629,-0.027243
1.63,-0.02047
1.631,-0.008226
1.632,0.008367
1.633,0.02477
1.634,0.036101
1.635,0.04203
1.636,0.047653
1.637,0.058436
1.638,0.074015
1.639,0.086664
1.64,0.086104
1.641,0.067324
1.642,0.034961
1.643,0.000447
1.644,-0.025183
1.645,-0.036851
1.646,-0.036038
1.647,-0.027754
1.648,-0.017187
1.649,-0.007936
1.65,-0.001699
1.651,0.001278
1.652,0.001648
1.653,0.000532
1.654,-0.000955
1.655,-0.002165
1.656,-0.003065
1.657,-0.004039
1.658,-0.005438
1.659,-0.007072
1.66,-0.00817
1.661,-0.007948
1.662,-0.006153
1.663,-0.003168
1.664,0.000169
1.665,0.002876
1.666,0.004252
1.667,0.004115
1.668,0.002697
1.669,0.00035
1.67,-0.002709
1.671,-0.006412
1.672,-0.01061
1.673,-0.014909
1.674,-0.018826
1.675,-0.022097
1.676,-0.024755
1.677,-0.026935
1.678,-0.028563
1.679,-0.029313
1.68,-0.028915
1.681,-0.027487
1.682,-0.025423
1.683,-0.023102
1.684,-0.020848
1.685,-0.019059
1.686,-0.018134
1.687,-0.01825
1.688,-0.01922
1.689,-0.020603
1.69,-0.02204
1.691,-0.023495
1.692,-0.025114
1.693,-0.026906
1.694,-0.028642
1.695,-0.030041
1.696,-0.030931
1.697,-0.031301
1.698,-0.031221
1.699,-0.030678
1.7,-0.029601
1.701,-0.028202
1.702,-0.027282
1.703,-0.027929
1.704,-0.030683
1.705,-0.034783
1.706,-0.03808
1.707,-0.038078
1.708,-0.033719
1.709,-0.026448
1.71,-0.01942
1.711,-0.015522
1.712,-0.015794
1.713,-0.019354
1.714,-0.024465
1.715,-0.02954
1.716,-0.033445
1.717,-0.035468
1.718,-0.035502
1.719,-0.034186
1.72,-0.032484
1.721,-0.030943
1.722,-0.029409
1.723,-0.027478
1.724,-0.025149
1.725,-0.023016
1.726,-0.021841
1.727,-0.02197
1.728,-0.023069
1.729,-0.024389
1.73,-0.025402
1.731,-0.026234
1.732,-0.027405
1.733,-0.029228
1.734,-0.031566
1.735,-0.033945
1.736,-0.035732
1.737,-0.036381
1.738,-0.035767
1.739,-0.034312
1.74,-0.032723
1.741,-0.031544
1.742,-0.030802
1.743,-0.029918
1.744,-0.027854
1.745,-0.023139
1.746,-0.013999
1.747,0.000398
1.748,0.018003
1.749,0.034157
1.75,0.045376
1.751,0.052911
1.752,0.06146
1.753,0.073992
1.754,0.087661
1.755,0.094385
1.756,0.086284
1.757,0.062142
1.758,0.029081
1.759,-0.001966
1.76,-0.022501
1.761,-0.029798
1.762,-0.026296
1.763,-0.01676
1.764,-0.0057
1.765,0.003681
1.766,0.009565
1.767,0.011583
1.768,0.010771
1.769,0.008936
1.77,0.007565
1.771,0.007057
1.772,0.006877
1.773,0.006398
1.774,0.005555
1.775,0.004844
1.776,0.004906
1.777,0.006078
1.778,0.008191
1.779,0.010647
1.78,0.012635
1.781,0.013426
1.782,0.012765
1.783,0.011116
1.784,0.009333
1.785,0.007911
1.786,0.00655
1.787,0.004517
1.788,0.001421
1.789,-0.002389
1.79,-0.006152
1.791,-0.00936
1.792,-0.012042
1.793,-0.014457
1.794,-0.01668
1.795,-0.018416
1.796,-0.019143
1.797,-0.018538
1.798,-0.016806
1.799,-0.014584
1.8,-0.012539
1.801,-0.011077
1.802,-0.010266
1.803,-0.009859
1.804,-0.009502
1.805,-0.009144
1.806,-0.009204
1.807,-0.010135
1.808,-0.011917
1.809,-0.014081
1.81,-0.016088
1.811,-0.017626
1.812,-0.018652
1.813,-0.019246
1.814,-0.019448
1.815,-0.019302
1.816,-0.01907
1.817,-0.019391
1.818,-0.021012
1.819,-0.024037
1.82,-0.027309
1.821,-0.028583
1.822,-0.025759
1.823,-0.018543
1.824,-0.009117
1.825,-0.001096
1.826,0.002523
1.827,0.001
1.828,-0.00411
1.829,-0.010416
1.83,-0.016085
1.831,-0.020154
1.832,-0.022362
1.833,-0.02311
1.834,-0.023216
1.835,-0.023279
1.836,-0.023237
1.837,-0.022577
1.838,-0.020961
1.839,-0.018698
1.84,-0.016663
1.841,-0.015766
1.842,-0.016389
1.843,-0.01811
1.844,-0.019933
1.845,-0.021036
1.846,-0.021442
1.847,-0.021932
1.848,-0.023286
1.849,-0.025544
1.85,-0.027896
1.851,-0.029286
1.852,-0.02924
1.853,-0.028155
1.854,-0.026948
1.855,-0.026436
1.856,-0.026767
1.857,-0.027234
1.858,-0.026573
1.859,-0.023409
1.86,-0.016384
1.861,-0.004306
1.862,0.012702
1.863,0.031675
1.864,0.047686
1.865,0.057743
1.866,0.063731
1.867,0.07058
1.868,0.081145
1.869,0.092436
1.87,0.096435
1.871,0.085731
1.872,0.059845
1.873,0.026454
1.874,-0.003502
1.875,-0.022172
1.876,-0.027772
1.877,-0.023345
1.878,-0.01376
1.879,-0.00331
1.88,0.005344
1.881,0.011115
1.882,0.014016
1.883,0.014853
1.884,0.014912
1.885,0.015285
1.886,0.016189
1.887,0.016932
1.888,0.01662
1.889,0.015044
1.89,0.012971
1.891,0.011571
1.892,0.011564
1.893,0.012781
1.894,0.014332
1.895,0.015212
1.896,0.014855
1.897,0.013228
1.898,0.010499
1.899,0.006748
1.9,0.002025
1.901,-0.003462
1.902,-0.009259
1.903,-0.014714
1.904,-0.019178
1.905,-0.022318
1.906,-0.024341
1.907,-0.025873
1.908,-0.027557
1.909,-0.029663
1.91,-0.031908
1.911,-0.033575
1.912,-0.033946
1.913,-0.032843
1.914,-0.030843
1.915,-0.028925
1.916,-0.027838
1.917,-0.027656
1.918,-0.027871
1.919,-0.027923
1.92,-0.02768
1.921,-0.02749
1.922,-0.027851
1.923,-0.02894
1.924,-0.030395
1.925,-0.031602
1.926,-0.032197
1.927,-0.032299
1.928,-0.032265
1.929,-0.032237
1.93,-0.032057
1.931,-0.031726
1.932,-0.031872
1.933,-0.033491
1.934,-0.037012
1.935,-0.041428
1.936,-0.044352
1.937,-0.043349
1.938,-0.037801
1.939,-0.029614
1.94,-0.022113
1.941,-0.018096
1.942,-0.01841
1.943,-0.021886
1.944,-0.026445
1.945,-0.030349
1.946,-0.032758
1.947,-0.033614
1.948,-0.033346
1.949,-0.032609
1.95,-0.031939
1.951,-0.031478
1.952,-0.03103
1.953,-0.030343
1.954,-0.029447
1.955,-0.028794
1.956,-0.028968
1.957,-0.030184
1.958,-0.032021
1.959,-0.033627
1.96,-0.034377
1.961,-0.034453
1.962,-0.034623
1.963,-0.035379
1.964,-0.036414
1.965,-0.036925
1.966,-0.036347
1.967,-0.034823
1.968,-0.033128
1.969,-0.032177
1.97,-0.03245
1.971,-0.033708
1.972,-0.03519
1.973,-0.035959
1.974,-0.034896
1.975,-0.030401
1.976,-0.020697
1.977,-0.005441
1.978,0.012641
1.979,0.028802
1.98,0.040173
1.981,0.04842
1.982,0.057782
1.983,0.070194
1.984,0.081947
1.985,0.084935
1.986,0.072479
1.987,0.045292
1.988,0.011881
1.989,-0.016928
1.99,-0.034033
1.991,-0.038377
1.992,-0.033398
1.993,-0.023961
1.994,-0.014146
1.995,-0.006601
1.996,-0.002533
1.997,-0.00171
1.998,-0.002712
1.999,-0.003766
2.0,-0.003804
2.001,-0.002964
2.002,-0.002138
2.003,-0.002046
2.004,-0.00264
2.005,-0.003195
2.006,-0.002893
2.007,-0.00143
2.008,0.000739
2.009,0.002707
2.01,0.0037
2.011,0.003445
2.012,0.002151
2.013,0.000279
2.014,-0.001698
2.015,-0.00356
2.016,-0.005476
2.017,-0.007791
2.018,-0.010618
2.019,-0.013637
2.02,-0.016344
2.021,-0.018519
2.022,-0.020366
2.023,-0.022154
2.024,-0.02388
2.025,-0.025218
2.026,-0.025641
2.027,-0.024679
2.028,-0.022311
2.029,-0.019244
2.03,-0.016653
2.031,-0.015455
2.032,-0.015742
2.033,-0.016846
2.034,-0.017921
2.035,-0.018569
2.036,-0.019043
2.037,-0.019893
2.038,-0.021383
2.039,-0.023175
2.04,-0.024594
2.041,-0.025194
2.042,-0.02501
2.043,-0.024376
2.044,-0.023688
2.045,-0.023298
2.046,-0.023516
2.047,-0.024735
2.048,-0.027429
2.049,-0.031659
2.05,-0.036321
2.051,-0.039057
2.052,-0.037498
2.053,-0.031129
2.054,-0.022029
2.055,-0.013684
2.056,-0.008968
2.057,-0.0088
2.058,-0.012153
2.059,-0.017017
2.06,-0.021501
2.061,-0.024481
2.062,-0.025704
2.063,-0.025552
2.064,-0.024745
2.065,-0.024025
2.066,-0.023745
2.067,-0.023631
2.068,-0.023112
2.069,-0.021996
2.07,-0.020779
2.071,-0.020303
2.072,-0.021051
2.073,-0.022748
2.074,-0.024636
2.075,-0.026114
2.076,-0.027121
2.077,-0.027997
2.078,-0.029026
2.079,-0.030081
2.08,-0.030712
2.081,-0.030575
2.082,-0.02972
2.083,-0.028524
2.084,-0.027452
2.085,-0.026851
2.086,-0.026792
2.087,-0.026975
2.088,-0.026786
2.089,-0.025296
2.09,-0.020986
2.091,-0.011907
2.092,0.002746
2.093,0.020692
2.094,0.037247
2.095,0.049143
2.096,0.057514
2.097,0.066339
2.098,0.077766
2.099,0.088709
2.1,0.091767
2.101,0.080466
2.102,0.054935
2.103,0.022719
2.104,-0.005882
2.105,-0.023597
2.106,-0.028865
2.107,-0.024639
2.108,-0.015517
2.109,-0.005588
2.11,0.002417
2.111,0.007227
2.112,0.008905
2.113,0.008551
2.114,0.007647
2.115,0.007252
2.116,0.007535
2.117,0.007967
2.118,0.007972
2.119,0.007539
2.12,0.007329
2.121,0.008116
2.122,0.01004
2.123,0.012396
2.124,0.014063
2.125,0.014142
2.126,0.012484
2.127,0.009839
2.128,0.007349
2.129,0.005672
2.13,0.004466
2.131,0.002719
2.132,-0.00036
2.133,-0.004663
2.134,-0.009281
2.135,-0.013168
2.136,-0.015732
2.137,-0.017045
2.138,-0.017616
2.139,-0.017864
2.14,-0.017771
2.141,-0.017039
2.142,-0.015455
2.143,-0.013133
2.144,-0.010566
2.145,-0.008476
2.146,-0.007447
2.147,-0.007597
2.148,-0.008602
2.149,-0.010005
2.15,-0.011535
2.151,-0.013279
2.152,-0.015456
2.153,-0.017939
2.154,-0.0201
2.155,-0.021213
2.156,-0.021023
2.157,-0.019882
2.158,-0.018408
2.159,-0.01707
2.16,-0.016123
2.161,-0.015874
2.162,-0.016806
2.163,-0.019247
2.164,-0.02285
2.165,-0.02626
2.166,-0.027371
2.167,-0.024534
2.168,-0.018028
2.169,-0.010295
2.17,-0.004547
2.171,-0.002943
2.172,-0.005583
2.173,-0.010829
2.174,-0.016432
2.175,-0.020514
2.176,-0.022054
2.177,-0.021132
2.178,-0.018846
2.179,-0.016666
2.18,-0.015488
2.181,-0.015169
2.182,-0.014885
2.183,-0.013897
2.184,-0.012214
2.185,-0.010663
2.186,-0.01029
2.187,-0.011581
2.188,-0.01411
2.189,-0.016847
2.19,-0.01895
2.191,-0.020381
2.192,-0.021715
2.193,-0.02329
2.194,-0.024691
2.195,-0.025124
2.196,-0.024163
2.197,-0.022213
2.198,-0.020299
2.199,-0.019276
2.2,-0.019172
2.201,-0.019316
2.202,-0.018959
2.203,-0.017488
2.204,-0.01407
2.205,-0.007363
2.206,0.003879
2.207,0.019194
2.208,0.035396
2.209,0.048472
2.21,0.057368
2.211,0.065157
2.212,0.075729
2.213,0.089154
2.214,0.099778
2.215,0.099151
2.216,0.082402
2.217,0.052779
2.218,0.01999
2.219,-0.005846
2.22,-0.019319
2.221,-0.020803
2.222,-0.014306
2.223,-0.004629
2.224,0.004399
2.225,0.010486
2.226,0.012936
2.227,0.012463
2.228,0.010582
2.229,0.008745
2.23,0.007732
2.231,0.007485
2.232,0.007368
2.233,0.006852
2.234,0.006126
2.235,0.006048
2.236,0.007454
2.237,0.010435
2.238,0.014137
2.239,0.017225
2.24,0.018656
2.241,0.018203
2.242,0.01648
2.243,0.014435
2.244,0.012554
2.245,0.010408
2.246,0.007094
2.247,0.002209
2.248,-0.003585
2.249,-0.008909
2.25,-0.01263
2.251,-0.014629
2.252,-0.015661
2.253,-0.01652
2.254,-0.017396
2.255,-0.017829
2.256,-0.017099
2.257,-0.014864
2.258,-0.011632
2.259,-0.008542
2.26,-0.006638
2.261,-0.006304
2.262,-0.007143
2.263,-0.008255
2.264,-0.008895
2.265,-0.009086
2.266,-0.009502
2.267,-0.010726
2.268,-0.012722
2.269,-0.014922
2.27,-0.016673
2.271,-0.017691
2.272,-0.018189
2.273,-0.018591
2.274,-0.0192
2.275,-0.020184
2.276,-0.02174
2.277,-0.024091
2.278,-0.027253
2.279,-0.030611
2.28,-0.032563
2.281,-0.031085
2.282,-0.025348
2.283,-0.016861
2.284,-0.008858
2.285,-0.004434
2.286,-0.004806
2.287,-0.008924
2.288,-0.014482
2.289,-0.019279
2.29,-0.022046
2.291,-0.022717
2.292,-0.0222
2.293,-0.021666
2.294,-0.021776
2.295,-0.022347
2.296,-0.022584
2.297,-0.021704
2.298,-0.019568
2.299,-0.016886
2.3,-0.014797
2.301,-0.014107
2.302,-0.014756
2.303,-0.015887
2.304,-0.016568
2.305,-0.016657
2.306,-0.016909
2.307,-0.018127
2.308,-0.020313
2.309,-0.022644
2.31,-0.024122
2.311,-0.024263
2.312,-0.023354
2.313,-0.022168
2.314,-0.021443
2.315,-0.021418
2.316,-0.021697
2.317,-0.021516
2.318,-0.02003
2.319,-0.01611
2.32,-0.00813
2.321,0.00501
2.322,0.02187
2.323,0.038295
2.324,0.050741
2.325,0.059814
2.326,0.069457
2.327,0.082314
2.328,0.095758
2.329,0.102113
2.33,0.093674
2.331,0.06912
2.332,0.035459
2.333,0.003623
2.334,-0.017898
2.335,-0.026351
2.336,-0.023878
2.337,-0.014806
2.338,-0.003516
2.339,0.006491
2.34,0.013005
2.341,0.015389
2.342,0.01455
2.343,0.012345
2.344,0.010483
2.345,0.009632
2.346,0.009311
2.347,0.008575
2.348,0.007021
2.349,0.005359
2.35,0.004969
2.351,0.006752
2.352,0.010306
2.353,0.014155
2.354,0.01677
2.355,0.01747
2.356,0.016529
2.357,0.014726
2.358,0.012768
2.359,0.010805
2.36,0.008335
2.361,0.004746
2.362,9.6e-05
2.363,-0.004662
2.364,-0.008353
2.365,-0.01056
2.366,-0.011938
2.367,-0.013503
2.368,-0.015575
2.369,-0.017394
2.37,-0.017735
2.371,-0.01594
2.372,-0.012527
2.373,-0.008889
2.374,-0.006401
2.375,-0.005624
2.376,-0.00613
2.377,-0.007014
2.378,-0.007664
2.379,-0.00817
2.38,-0.00917
2.381,-0.011233
2.382,-0.014196
2.383,-0.017085
2.384,-0.018805
2.385,-0.019014
2.386,-0.018319
2.387,-0.017675
2.388,-0.017634
2.389,-0.018193
2.39,-0.019245
2.391,-0.020942
2.392,-0.023434
2.393,-0.026158
2.394,-0.027437
2.395,-0.025244
2.396,-0.018925
2.397,-0.010215
2.398,-0.002418
2.399,0.001543
2.4,0.000572
2.401,-0.004512
2.402,-0.011791
2.403,-0.019042
2.404,-0.024331
2.405,-0.026655
2.406,-0.02636
2.407,-0.024857
2.408,-0.02363
2.409,-0.023187
2.41,-0.022839
2.411,-0.021505
2.412,-0.018798
2.413,-0.015443
2.414,-0.012785
2.415,-0.011853
2.416,-0.01267
2.417,-0.014281
2.418,-0.015535
2.419,-0.01601
2.42,-0.016309
2.421,-0.017455
2.422,-0.01982
2.423,-0.022625
2.424,-0.024603
2.425,-0.025167
2.426,-0.02487
2.427,-0.024757
2.428,-0.025364
2.429,-0.02629
2.43,-0.026557
2.431,-0.025236
2.432,-0.021717
2.433,-0.015348
2.434,-0.005066
2.435,0.009769
2.436,0.027492
2.437,0.043942
2.438,0.055723
2.439,0.063692
2.44,0.072045
2.441,0.083616
2.442,0.095991
2.443,0.101797
2.444,0.09351
2.445,0.069555
2.446,0.036315
2.447,0.004272
2.448,-0.017908
2.449,-0.026836
2.45,-0.024181
2.451,-0.014394
2.452,-0.002377
2.453,0.008032
2.454,0.01471
2.455,0.01727
2.456,0.016714
2.457,0.014803
2.458,0.01309
2.459,0.012119
2.46,0.011385
2.461,0.010052
2.462,0.007905
2.463,0.005789
2.464,0.005057
2.465,0.006407
2.466,0.009197
2.467,0.011856
2.468,0.012984
2.469,0.012273
2.47,0.010621
2.471,0.00929
2.472,0.008778
2.473,0.008416
2.474,0.007003
2.475,0.003855
2.476,-0.000604
2.477,-0.005171
2.478,-0.008766
2.479,-0.011215
2.48,-0.013301
2.481,-0.015988
2.482,-0.019397
2.483,-0.022504
2.484,-0.023863
2.485,-0.022717
2.486,-0.019575
2.487,-0.015968
2.488,-0.013573
2.489,-0.013153
2.49,-0.01405
2.491,-0.014817
2.492,-0.014512
2.493,-0.01349
2.494,-0.013003
2.495,-0.014077
2.496,-0.016695
2.497,-0.019841
2.498,-0.02227
2.499,-0.023293
2.5,-0.023109
2.501,-0.022564
2.502,-0.022552
2.503,-0.023522
2.504,-0.025472
2.505,-0.028258
2.506,-0.031696
2.507,-0.035158
2.508,-0.037122
2.509,-0.035598
2.51,-0.029698
2.511,-0.020916
2.512,-0.012592
2.513,-0.007901
2.514,-0.00814
2.515,-0.012458
2.516,-0.018744
2.517,-0.024711
2.518,-0.02865
2.519,-0.029944
2.52,-0.029334
2.521,-0.02843
2.522,-0.028454
2.523,-0.029284
2.524,-0.029794
2.525,-0.02905
2.526,-0.02718
2.527,-0.025246
2.528,-0.024402
2.529,-0.025021
2.53,-0.026389
2.531,-0.02728
2.532,-0.026973
2.533,-0.025853
2.534,-0.025103
2.535,-0.025702
2.536,-0.027629
2.537,-0.029884
2.538,-0.031287
2.539,-0.031394
2.54,-0.030777
2.541,-0.030466
2.542,-0.03109
2.543,-0.032345
2.544,-0.033167
2.545,-0.032466
2.546,-0.029538
2.547,-0.02356
2.548,-0.013236
2.549,0.001954
2.55,0.019802
2.551,0.035884
2.552,0.047341
2.553,0.055852
2.554,0.065802
2.555,0.079264
2.556,0.092576
2.557,0.097536
2.558,0.086996
2.559,0.060771
2.56,0.026509
2.561,-0.00499
2.562,-0.025534
2.563,-0.032479
2.564,-0.028127
2.565,-0.01734
2.566,-0.00529
2.567,0.004028
2.568,0.008672
2.569,0.009012
2.57,0.007113
2.571,0.00536
2.572,0.005057
2.573,0.005893
2.574,0.006563
2.575,0.005963
2.576,0.004041
2.577,0.001784
2.578,0.000514
2.579,0.000984
2.58,0.002802
2.581,0.004676
2.582,0.005396
2.583,0.004752
2.584,0.003549
2.585,0.002727
2.586,0.002431
2.587,0.001754
2.588,-0.000605
2.589,-0.005129
2.59,-0.010702
2.591,-0.015256
2.592,-0.017446
2.593,-0.017694
2.594,-0.017622
2.595,-0.01853
2.596,-0.02038
2.597,-0.02201
2.598,-0.022201
2.599,-0.020703
2.6,-0.018481
2.601,-0.016969
2.602,-0.016825
2.603,-0.017287
2.604,-0.016867
2.605,-0.014872
2.606,-0.012202
2.607,-0.010662
2.608,-0.011636
2.609,-0.015198
2.61,-0.020057
2.611,-0.02433
2.612,-0.026628
2.613,-0.026554
2.614,-0.024486
2.615,-0.021344
2.616,-0.018605
2.617,-0.0179
2.618,-0.020012
2.619,-0.024212
2.62,-0.028675
2.621,-0.031313
2.622,-0.030252
2.623,-0.024459
2.624,-0.014868
2.625,-0.004835
2.626,0.00123
2.627,0.000527
2.628,-0.00617
2.629,-0.015153
2.63,-0.022301
2.631,-0.024964
2.632,-0.022615
2.633,-0.017172
2.634,-0.012451
2.635,-0.011889
2.636,-0.015875
2.637,-0.021096
2.638,-0.023094
2.639,-0.020322
2.64,-0.01559
2.641,-0.01297
2.642,-0.013661
2.643,-0.015394
2.644,-0.015394
2.645,-0.013225
2.646,-0.010847
2.647,-0.010337
2.648,-0.011855
2.649,-0.013785
2.65,-0.014424
2.651,-0.013294
2.652,-0.011047
2.653,-0.008628
2.654,-0.006645
2.655,-0.00527
2.656,-0.004376
2.657,-0.003008
2.658,0.000623
2.659,0.006867
2.66,0.013908
2.661,0.021689
2.662,0.033191
2.663,0.048286
2.664,0.060166
2.665,0.063029
2.666,0.061887
2.667,0.070033
2.668,0.095374
2.669,0.130429
2.67,0.156048
2.671,0.155524
2.672,0.126915
2.673,0.083526
2.674,0.04373
2.675,0.019793
2.676,0.013336
2.677,0.018266
2.678,0.027593
2.679,0.038329
2.68,0.050192
2.681,0.061641
2.682,0.069963
2.683,0.074361
2.684,0.076441
2.685,0.077642
2.686,0.077472
2.687,0.07486
2.688,0.07076
2.689,0.068113
2.69,0.068893
2.691,0.072413
2.692,0.076441
2.693,0.078449
2.694,0.076182
2.695,0.069127
2.696,0.060112
2.697,0.054168
2.698,0.054514
2.699,0.059687
2.7,0.065059
2.701,0.067008
2.702,0.065498
2.703,0.063169
2.704,0.062516
2.705,0.063846
2.706,0.065423
2.707,0.065198
2.708,0.062351
2.709,0.05751
2.71,0.05221
2.711,0.048385
2.712,0.047567
2.713,0.04984
2.714,0.053667
2.715,0.057002
2.716,0.058679
2.717,0.058892
2.718,0.058509
2.719,0.058169
2.72,0.058069
2.721,0.058262
2.722,0.05883
2.723,0.059845
2.724,0.061172
2.725,0.062213
2.726,0.062051
2.727,0.06012
2.728,0.056713
2.729,0.052719
2.73,0.048854
2.731,0.045341
2.732,0.042549
2.733,0.041637
2.734,0.043877
2.735,0.049197
2.736,0.05567
2.737,0.060552
2.738,0.061915
2.739,0.059623
2.74,0.055055
2.741,0.049982
2.742,0.045708
2.743,0.043031
2.744,0.042411
2.745,0.043692
2.746,0.045698
2.747,0.046572
2.748,0.044956
2.749,0.041042
2.75,0.036447
2.751,0.032922
2.752,0.031102
2.753,0.030417
2.754,0.030055
2.755,0.02988
2.756,0.030349
2.757,0.031652
2.758,0.033197
2.759,0.034014
2.76,0.033515
2.761,0.03194
2.762,0.030257
2.763,0.029583
2.764,0.030413
2.765,0.032098
2.766,0.033078
2.767,0.032003
2.768,0.028801
2.769,0.024735
2.77,0.021653
2.771,0.021369
2.772,0.025559
2.773,0.03541
2.774,0.050084
2.775,0.06537
2.776,0.075797
2.777,0.080253
2.778,0.08494
2.779,0.098178
2.78,0.120867
2.781,0.142673
2.782,0.148677
2.783,0.130835
2.784,0.09405
2.785,0.052182
2.786,0.018705
2.787,0.000101
2.788,-0.004591
2.789,-0.000362
2.79,0.007436
2.791,0.015024
2.792,0.020428
2.793,0.023077
2.794,0.023443
2.795,0.022642
2.796,0.021805
2.797,0.0214
2.798,0.021038
2.799,0.020075
2.8,0.018462
2.801,0.016994
2.802,0.01679
2.803,0.018525
2.804,0.021907
2.805,0.025684
2.806,0.028273
2.807,0.028667
2.808,0.026939
2.809,0.024019
2.81,0.020989
2.811,0.01844
2.812,0.016292
2.813,0.014122
2.814,0.011622
2.815,0.008773
2.816,0.005774
2.817,0.002823
2.818,-6.1e-05
2.819,-0.002939
2.82,-0.005656
2.821,-0.007784
2.822,-0.008849
2.823,-0.008545
2.824,-0.006916
2.825,-0.004505
2.826,-0.00219
2.827,-0.000742
2.828,-0.000537
2.829,-0.00153
2.83,-0.003362
2.831,-0.005568
2.832,-0.007777
2.833,-0.009732
2.834,-0.011281
2.835,-0.01244
2.836,-0.013412
2.837,-0.014434
2.838,-0.015659
2.839,-0.017094
2.84,-0.018469
2.841,-0.019233
2.842,-0.018805
2.843,-0.016832
2.844,-0.013469
2.845,-0.009738
2.846,-0.007451
2.847,-0.008244
2.848,-0.012166
2.849,-0.01697
2.85,-0.019224
2.851,-0.016907
2.852,-0.01116
2.853,-0.005466
2.854,-0.003153
2.855,-0.005393
2.856,-0.011013
2.857,-0.017793
2.858,-0.023794
2.859,-0.027878
2.86,-0.029691
2.861,-0.029567
2.862,-0.028237
2.863,-0.026404
2.864,-0.024491
2.865,-0.022715
2.866,-0.021216
2.867,-0.020123
2.868,-0.019634
2.869,-0.020003
2.87,-0.02128
2.871,-0.023096
2.872,-0.024862
2.873,-0.026229
2.874,-0.027342
2.875,-0.028651
2.876,-0.030459
2.877,-0.032617
2.878,-0.034589
2.879,-0.035724
2.88,-0.035547
2.881,-0.034072
2.882,-0.031907
2.883,-0.029895
2.884,-0.028522
2.885,-0.027646
2.886,-0.026635
2.887,-0.024393
2.888,-0.019174
2.889,-0.009083
2.89,0.006048
2.891,0.023029
2.892,0.036888
2.893,0.045376
2.894,0.051623
2.895,0.061065
2.896,0.075237
2.897,0.088469
2.898,0.090871
2.899,0.075764
2.9,0.045454
2.901,0.010172
2.902,-0.018449
2.903,-0.033633
2.904,-0.035352
2.905,-0.028099
2.906,-0.017435
2.907,-0.007609
2.908,-0.000819
2.909,0.002444
2.91,0.002831
2.911,0.00163
2.912,0.000156
2.913,-0.00078
2.914,-0.001037
2.915,-0.000941
2.916,-0.000894
2.917,-0.001044
2.918,-0.001179
2.919,-0.000859
2.92,0.000282
2.921,0.002185
2.922,0.004297
2.923,0.005889
2.924,0.006558
2.925,0.006417
2.926,0.005753
2.927,0.004574
2.928,0.002581
2.929,-0.000487
2.93,-0.004565
2.931,-0.00927
2.932,-0.014049
2.933,-0.018303
2.934,-0.021569
2.935,-0.023799
2.936,-0.025421
2.937,-0.026888
2.938,-0.028087
2.939,-0.028261
2.94,-0.026641
2.941,-0.023264
2.942,-0.019178
2.943,-0.015796
2.944,-0.013993
2.945,-0.013804
2.946,-0.014737
2.947,-0.016178
2.948,-0.017729
2.949,-0.01936
2.95,-0.021196
2.951,-0.023193
2.952,-0.025081
2.953,-0.026515
2.954,-0.027254
2.955,-0.027278
2.956,-0.026741
2.957,-0.02584
2.958,-0.024838
2.959,-0.024172
2.96,-0.024391
2.961,-0.025968
2.962,-0.029043
2.963,-0.032877
2.964,-0.035454
2.965,-0.034393
2.966,-0.028997
2.967,-0.021273
2.968,-0.014706
2.969,-0.011962
2.97,-0.013442
2.971,-0.017645
2.972,-0.022568
2.973,-0.026772
2.974,-0.029583
2.975,-0.030843
2.976,-0.030816
2.977,-0.030157
2.978,-0.029528
2.979,-0.029026
2.98,-0.028187
2.981,-0.026691
2.982,-0.024879
2.983,-0.023516
2.984,-0.023214
2.985,-0.024037
2.986,-0.025447
2.987,-0.026599
2.988,-0.026936
2.989,-0.026666
2.99,-0.026602
2.991,-0.027414
2.992,-0.02899
2.993,-0.03049
2.994,-0.031012
2.995,-0.030295
2.996,-0.028909
2.997,-0.027844
2.998,-0.027782
2.999,-0.02862
3.0,-0.029635
3.001,-0.029953
3.002,-0.028581
3.003,-0.024013
3.004,-0.01441
3.005,0.000778
3.006,0.01899
3.007,0.03546
3.008,0.047222
3.009,0.055984
3.01,0.066141
3.011,0.079644
3.012,0.092595
3.013,0.096661
3.014,0.084936
3.015,0.057899
3.016,0.023937
3.017,-0.006015
3.018,-0.02461
3.019,-0.030497
3.02,-0.026777
3.021,-0.018013
3.022,-0.008145
3.023,0.000171
3.024,0.005527
3.025,0.007684
3.026,0.007435
3.027,0.006198
3.028,0.00524
3.029,0.004984
3.03,0.004993
3.031,0.004617
3.032,0.003715
3.033,0.0028
3.034,0.002577
3.035,0.00334
3.036,0.004698
3.037,0.005755
3.038,0.005706
3.039,0.004475
3.04,0.002793
3.041,0.001506
3.042,0.000703
3.043,-0.000404
3.044,-0.002689
3.045,-0.006287
3.046,-0.010451
3.047,-0.014071
3.048,-0.016445
3.049,-0.017696
3.05,-0.018538
3.051,-0.019648
3.052,-0.021107
3.053,-0.022311
3.054,-0.022442
3.055,-0.021073
3.056,-0.018548
3.057,-0.015946
3.058,-0.014485
3.059,-0.01468
3.06,-0.016004
3.061,-0.017351
3.062,-0.017908
3.063,-0.01777
3.064,-0.017803
3.065,-0.018864
3.066,-0.021041
3.067,-0.023586
3.068,-0.02552
3.069,-0.026299
3.07,-0.026025
3.071,-0.02524
3.072,-0.024495
3.073,-0.024113
3.074,-0.024393
3.075,-0.025789
3.076,-0.028538
3.077,-0.031916
3.078,-0.033999
3.079,-0.032629
3.08,-0.027117
3.081,-0.019098
3.082,-0.011673
3.083,-0.007583
3.084,-0.007824
3.085,-0.011543
3.086,-0.016899
3.087,-0.022002
3.088,-0.025543
3.089,-0.027082
3.09,-0.027022
3.091,-0.026302
3.092,-0.02585
3.093,-0.02596
3.094,-0.026121
3.095,-0.025523
3.096,-0.023845
3.097,-0.021695
3.098,-0.020255
3.099,-0.020279
3.1,-0.021371
3.101,-0.02238
3.102,-0.022523
3.103,-0.022048
3.104,-0.021864
3.105,-0.022706
3.106,-0.024575
3.107,-0.02671
3.108,-0.028101
3.109,-0.028265
3.11,-0.027641
3.111,-0.027283
3.112,-0.028056
3.113,-0.029901
3.114,-0.031806
3.115,-0.032435
3.116,-0.030595
3.117,-0.025103
3.118,-0.014637
3.119,0.001251
3.12,0.020328
3.121,0.037941
3.122,0.050659
3.123,0.059486
3.124,0.068449
3.125,0.079862
3.126,0.090866
3.127,0.094176
3.128,0.083051
3.129,0.057043
3.13,0.023343
3.131,-0.007554
3.132,-0.027721
3.133,-0.034835
3.134,-0.031374
3.135,-0.021912
3.136,-0.010835
3.137,-0.001342
3.138,0.004754
3.139,0.007114
3.14,0.006772
3.141,0.00545
3.142,0.004558
3.143,0.004582
3.144,0.005112
3.145,0.005336
3.146,0.004725
3.147,0.003519
3.148,0.002605
3.149,0.002785
3.15,0.004045
3.151,0.005521
3.152,0.006204
3.153,0.005703
3.154,0.004439
3.155,0.003185
3.156,0.002422
3.157,0.001976
3.158,0.00116
3.159,-0.000704
3.16,-0.003719
3.161,-0.007326
3.162,-0.010765
3.163,-0.01366
3.164,-0.016237
3.165,-0.018952
3.166,-0.021852
3.167,-0.024344
3.168,-0.025643
3.169,-0.025379
3.17,-0.023867
3.171,-0.021962
3.172,-0.020592
3.173,-0.020214
3.174,-0.020561
3.175,-0.020896
3.176,-0.020644
3.177,-0.019884
3.178,-0.019303
3.179,-0.019669
3.18,-0.021238
3.181,-0.023542
3.182,-0.025723
3.183,-0.027066
3.184,-0.027425
3.185,-0.027265
3.186,-0.027186
3.187,-0.027421
3.188,-0.028047
3.189,-0.029445
3.19,-0.03211
3.191,-0.035827
3.192,-0.03908
3.193,-0.039491
3.194,-0.035454
3.195,-0.027662
3.196,-0.018957
3.197,-0.012624
3.198,-0.010615
3.199,-0.012825
3.2,-0.017614
3.201,-0.022911
3.202,-0.027072
3.203,-0.029291
3.204,-0.02974
3.205,-0.02939
3.206,-0.029354
3.207,-0.030073
3.208,-0.031008
3.209,-0.031085
3.21,-0.02957
3.211,-0.026786
3.212,-0.024028
3.213,-0.022637
3.214,-0.023023
3.215,-0.024429
3.216,-0.025671
3.217,-0.026198
3.218,-0.026503
3.219,-0.027567
3.22,-0.02985
3.221,-0.032774
3.222,-0.035122
3.223,-0.035923
3.224,-0.035112
3.225,-0.033537
3.226,-0.032294
3.227,-0.031893
3.228,-0.032022
3.229,-0.031943
3.23,-0.030804
3.231,-0.027519
3.232,-0.020498
3.233,-0.008206
3.234,0.008936
3.235,0.027308
3.236,0.042227
3.237,0.052038
3.238,0.059501
3.239,0.068682
3.24,0.080241
3.241,0.089188
3.242,0.087506
3.243,0.07042
3.244,0.040917
3.245,0.008298
3.246,-0.017481
3.247,-0.03079
3.248,-0.031653
3.249,-0.023937
3.25,-0.012553
3.251,-0.001484
3.252,0.006844
3.253,0.011457
3.254,0.012668
3.255,0.011777
3.256,0.010389
3.257,0.00957
3.258,0.009346
3.259,0.008939
3.26,0.007669
3.261,0.005752
3.262,0.004254
3.263,0.004254
3.264,0.005989
3.265,0.008636
3.266,0.010878
3.267,0.011767
3.268,0.011191
3.269,0.009757
3.27,0.008245
3.271,0.006933
3.272,0.005408
3.273,0.003033
3.274,-0.00044
3.275,-0.00462
3.276,-0.008658
3.277,-0.011753
3.278,-0.013689
3.279,-0.014909
3.28,-0.015996
3.281,-0.017113
3.282,-0.017893
3.283,-0.017805
3.284,-0.016657
3.285,-0.014815
3.286,-0.012957
3.287,-0.011651
3.288,-0.011098
3.289,-0.011104
3.29,-0.011312
3.291,-0.011583
3.292,-0.01214
3.293,-0.013306
3.294,-0.015112
3.295,-0.017067
3.296,-0.018375
3.297,-0.018557
3.298,-0.017908
3.299,-0.017297
3.3,-0.017415
3.301,-0.018246
3.302,-0.019362
3.303,-0.02061
3.304,-0.022316
3.305,-0.024829
3.306,-0.027721
3.307,-0.029352
3.308,-0.027705
3.309,-0.022102
3.31,-0.014114
3.311,-0.006785
3.312,-0.002889
3.313,-0.003487
3.314,-0.00773
3.315,-0.013674
3.316,-0.019289
3.317,-0.023197
3.318,-0.025016
3.319,-0.025244
3.32,-0.024829
3.321,-0.024554
3.322,-0.024499
3.323,-0.024054
3.324,-0.022619
3.325,-0.020336
3.326,-0.018141
3.327,-0.017045
3.328,-0.017324
3.329,-0.018346
3.33,-0.019151
3.331,-0.019247
3.332,-0.018976
3.333,-0.019154
3.334,-0.02033
3.335,-0.022311
3.336,-0.024258
3.337,-0.025259
3.338,-0.025022
3.339,-0.024089
3.34,-0.023432
3.341,-0.023762
3.342,-0.025
3.343,-0.02627
3.344,-0.026387
3.345,-0.024211
3.346,-0.018477
3.347,-0.007828
3.348,0.007907
3.349,0.026171
3.35,0.042522
3.351,0.054174
3.352,0.062518
3.353,0.071422
3.354,0.082785
3.355,0.093333
3.356,0.095598
3.357,0.083175
3.358,0.056365
3.359,0.022912
3.36,-0.006803
3.361,-0.025543
3.362,-0.031646
3.363,-0.027808
3.364,-0.018476
3.365,-0.007836
3.366,0.001105
3.367,0.006811
3.368,0.009272
3.369,0.009669
3.37,0.009492
3.371,0.009576
3.372,0.009797
3.373,0.009525
3.374,0.008364
3.375,0.006624
3.376,0.005221
3.377,0.005064
3.378,0.006381
3.379,0.00847
3.38,0.010084
3.381,0.010247
3.382,0.008917
3.383,0.006951
3.384,0.005383
3.385,0.004692
3.386,0.00455
3.387,0.004046
3.388,0.002287
3.389,-0.000865
3.39,-0.004583
3.391,-0.00774
3.392,-0.009833
3.393,-0.011243
3.394,-0.012693
3.395,-0.014445
3.396,-0.015976
3.397,-0.016422
3.398,-0.015334
3.399,-0.01304
3.4,-0.010458
3.401,-0.00862
3.402,-0.008113
3.403,-0.008741
3.404,-0.009704
3.405,-0.010265
3.406,-0.01038
3.407,-0.010672
3.408,-0.011802
3.409,-0.013819
3.41,-0.016045
3.411,-0.017613
3.412,-0.018183
3.413,-0.018199
3.414,-0.018461
3.415,-0.019423
3.416,-0.020904
3.417,-0.022513
3.418,-0.024295
3.419,-0.026742
3.42,-0.029945
3.421,-0.032705
3.422,-0.03283
3.423,-0.028799
3.424,-0.021296
3.425,-0.013127
3.426,-0.007546
3.427,-0.00639
3.428,-0.009408
3.429,-0.014839
3.43,-0.020465
3.431,-0.024586
3.432,-0.026579
3.433,-0.026864
3.434,-0.026424
3.435,-0.026105
3.436,-0.026056
3.437,-0.025772
3.438,-0.024698
3.439,-0.022776
3.44,-0.020523
3.441,-0.018746
3.442,-0.018058
3.443,-0.018432
3.444,-0.019252
3.445,-0.019864
3.446,-0.020105
3.447,-0.020421
3.448,-0.021519
3.449,-0.023692
3.45,-0.026358
3.451,-0.028371
3.452,-0.028942
3.453,-0.02832
3.454,-0.027658
3.455,-0.028131
3.456,-0.030032
3.457,-0.032553
3.458,-0.034234
3.459,-0.033494
3.46,-0.028821
3.461,-0.018884
3.462,-0.003347
3.463,0.015735
3.464,0.033991
3.465,0.047812
3.466,0.057715
3.467,0.067638
3.468,0.080309
3.469,0.093248
3.47,0.099044
3.471,0.09021
3.472,0.065325
3.473,0.031076
3.474,-0.001785
3.475,-0.024564
3.476,-0.034059
3.477,-0.032168
3.478,-0.023409
3.479,-0.012444
3.48,-0.002699
3.481,0.003989
3.482,0.007322
3.483,0.008308
3.484,0.00855
3.485,0.009217
3.486,0.010421
3.487,0.011355
3.488,0.011028
3.489,0.00916
3.49,0.006598
3.491,0.004791
3.492,0.004691
3.493,0.006016
3.494,0.007455
3.495,0.007634
3.496,0.006112
3.497,0.003595
3.498,0.001248
3.499,-0.000175
3.5,-0.000792
3.501,-0.001444
3.502,-0.003015
3.503,-0.005665
3.504,-0.008699
3.505,-0.011236
3.506,-0.013004
3.507,-0.014511
3.508,-0.016495
3.509,-0.019156
3.51,-0.021806
3.511,-0.023295
3.512,-0.02289
3.513,-0.020877
3.514,-0.018389
3.515,-0.016626
3.516,-0.016102
3.517,-0.016419
3.518,-0.016675
3.519,-0.016162
3.52,-0.014917
3.521,-0.013703
3.522,-0.013423
3.523,-0.014366
3.524,-0.015916
3.525,-0.017082
3.526,-0.017404
3.527,-0.017373
3.528,-0.017919
3.529,-0.0195
3.53,-0.021762
3.531,-0.024141
3.532,-0.026652
3.533,-0.029859
3.534,-0.033877
3.535,-0.037416
3.536,-0.038119
3.537,-0.034252
3.538,-0.026291
3.539,-0.016999
3.54,-0.009938
3.541,-0.007429
3.542,-0.009448
3.543,-0.014124
3.544,-0.019132
3.545,-0.022824
3.546,-0.024694
3.547,-0.025298
3.548,-0.025757
3.549,-0.026985
3.55,-0.029007
3.551,-0.030874
3.552,-0.031457
3.553,-0.030452
3.554,-0.028588
3.555,-0.026921
3.556,-0.026071
3.557,-0.025961
3.558,-0.025985
3.559,-0.02545
3.56,-0.024202
3.561,-0.022913
3.562,-0.022549
3.563,-0.023443
3.564,-0.024952
3.565,-0.026062
3.566,-0.026252
3.567,-0.025875
3.568,-0.025883
3.569,-0.027077
3.57,-0.02935
3.571,-0.031615
3.572,-0.032483
3.573,-0.030824
3.574,-0.025647
3.575,-0.015848
3.576,-0.001004
3.577,0.017
3.578,0.034084
3.579,0.047261
3.58,0.057715
3.581,0.069387
3.582,0.084208
3.583,0.09875
3.584,0.105105
3.585,0.095899
3.586,0.070236
3.587,0.035329
3.588,0.002199
3.589,-0.020488
3.59,-0.029756
3.591,-0.02774
3.592,-0.019054
3.593,-0.008354
3.594,0.000931
3.595,0.00701
3.596,0.009701
3.597,0.010016
3.598,0.009405
3.599,0.009004
3.6,0.009158
3.601,0.009398
3.602,0.008989
3.603,0.007724
3.604,0.006302
3.605,0.005858
3.606,0.006991
3.607,0.009172
3.608,0.011027
3.609,0.011254
3.61,0.009521
3.611,0.006619
3.612,0.003724
3.613,0.001485
3.614,-0.000257
3.615,-0.002073
3.616,-0.004333
3.617,-0.00686
3.618,-0.009037
3.619,-0.010266
3.62,-0.010513
3.621,-0.010521
3.622,-0.011262
3.623,-0.013047
3.624,-0.015245
3.625,-0.016758
3.626,-0.016804
3.627,-0.015458
3.628,-0.013631
3.629,-0.012496
3.63,-0.012704
3.631,-0.013962
3.632,-0.015318
3.633,-0.015918
3.634,-0.015699
3.635,-0.01542
3.636,-0.015947
3.637,-0.017447
3.638,-0.019233
3.639,-0.020313
3.64,-0.020143
3.641,-0.019037
3.642,-0.017884
3.643,-0.017484
3.644,-0.018139
3.645,-0.019833
3.646,-0.022597
3.647,-0.026489
3.648,-0.031104
3.649,-0.035055
3.65,-0.036176
3.651,-0.032911
3.652,-0.025819
3.653,-0.017625
3.654,-0.01168
3.655,-0.010069
3.656,-0.012651
3.657,-0.017574
3.658,-0.022521
3.659,-0.025709
3.66,-0.026461
3.661,-0.025433
3.662,-0.02413
3.663,-0.023816
3.664,-0.024661
3.665,-0.02581
3.666,-0.026192
3.667,-0.025386
3.668,-0.023948
3.669,-0.022968
3.67,-0.023178
3.671,-0.024359
3.672,-0.025552
3.673,-0.025889
3.674,-0.02534
3.675,-0.024749
3.676,-0.025112
3.677,-0.026668
3.678,-0.028588
3.679,-0.029585
3.68,-0.028933
3.681,-0.027059
3.682,-0.025266
3.683,-0.02476
3.684,-0.025754
3.685,-0.02736
3.686,-0.028219
3.687,-0.027145
3.688,-0.023136
3.689,-0.015038
3.69,-0.002137
3.691,0.014146
3.692,0.030034
3.693,0.042433
3.694,0.052147
3.695,0.062966
3.696,0.077224
3.697,0.092102
3.698,0.099906
3.699,0.092857
3.7,0.069231
3.701,0.035452
3.702,0.002314
3.703,-0.021073
3.704,-0.031092
3.705,-0.029519
3.706,-0.020924
3.707,-0.010015
3.708,-0.000264
3.709,0.006383
3.71,0.009477
3.711,0.009884
3.712,0.00924
3.713,0.009051
3.714,0.009821
3.715,0.01085
3.716,0.011013
3.717,0.009907
3.718,0.008321
3.719,0.00764
3.72,0.008657
3.721,0.010772
3.722,0.012352
3.723,0.012017
3.724,0.009693
3.725,0.006571
3.726,0.004134
3.727,0.003018
3.728,0.002585
3.729,0.001549
3.73,-0.000872
3.731,-0.004353
3.732,-0.007813
3.733,-0.010239
3.734,-0.011384
3.735,-0.01181
3.736,-0.012294
3.737,-0.013155
3.738,-0.014074
3.739,-0.014364
3.74,-0.013516
3.741,-0.011703
3.742,-0.009859
3.743,-0.00911
3.744,-0.009921
3.745,-0.0117
3.746,-0.013217
3.747,-0.013519
3.748,-0.012674
3.749,-0.011675
3.75,-0.011569
3.751,-0.012588
3.752,-0.014037
3.753,-0.014954
3.754,-0.014946
3.755,-0.014469
3.756,-0.014397
3.757,-0.01538
3.758,-0.017575
3.759,-0.020827
3.76,-0.024937
3.761,-0.029587
3.762,-0.033901
3.763,-0.036196
3.764,-0.034601
3.765,-0.028523
3.766,-0.019617
3.767,-0.01111
3.768,-0.006005
3.769,-0.005552
3.77,-0.008875
3.771,-0.013784
3.772,-0.018052
3.773,-0.020339
3.774,-0.020434
3.775,-0.019065
3.776,-0.017471
3.777,-0.01677
3.778,-0.017274
3.779,-0.018299
3.78,-0.018797
3.781,-0.018317
3.782,-0.017397
3.783,-0.016954
3.784,-0.017359
3.785,-0.018124
3.786,-0.018323
3.787,-0.017372
3.788,-0.015576
3.789,-0.013968
3.79,-0.013474
3.791,-0.01412
3.792,-0.014994
3.793,-0.015009
3.794,-0.013897
3.795,-0.012554
3.796,-0.012352
3.797,-0.014012
3.798,-0.01697
3.799,-0.019675
3.8,-0.020519
3.801,-0.01846
3.802,-0.012678
3.803,-0.002171
3.804,0.013211
3.805,0.031117
3.806,0.047366
3.807,0.059484
3.808,0.069332
3.809,0.081192
3.81,0.096807
3.811,0.112036
3.812,0.118194
3.813,0.107875
3.814,0.08103
3.815,0.045752
3.816,0.013231
3.817,-0.00838
3.818,-0.016754
3.819,-0.014311
3.82,-0.005576
3.821,0.00492
3.822,0.013777
3.823,0.019262
3.824,0.021404
3.825,0.021594
3.826,0.021612
3.827,0.022454
3.828,0.023777
3.829,0.024412
3.83,0.023512
3.831,0.021315
3.832,0.018996
3.833,0.017869
3.834,0.018499
3.835,0.020282
3.836,0.021782
3.837,0.021712
3.838,0.019891
3.839,0.017391
3.84,0.015641
3.841,0.015224
3.842,0.015443
3.843,0.014965
3.844,0.012906
3.845,0.009515
3.846,0.005951
3.847,0.003301
3.848,0.001723
3.849,0.000506
3.85,-0.001107
3.851,-0.003146
3.852,-0.004858
3.853,-0.005314
3.854,-0.00421
3.855,-0.002262
3.856,-0.000836
3.857,-0.001072
3.858,-0.003087
3.859,-0.005821
3.86,-0.007775
3.861,-0.008167
3.862,-0.00751
3.863,-0.007095
3.864,-0.007826
3.865,-0.009423
3.866,-0.010667
3.867,-0.010481
3.868,-0.008876
3.869,-0.006913
3.87,-0.005829
3.871,-0.006252
3.872,-0.008113
3.873,-0.011106
3.874,-0.015012
3.875,-0.019531
3.876,-0.023788
3.877,-0.026069
3.878,-0.02456
3.879,-0.018848
3.88,-0.010714
3.881,-0.00327
3.882,0.000836
3.883,0.000774
3.884,-0.002424
3.885,-0.006797
3.886,-0.010456
3.887,-0.012239
3.888,-0.012094
3.889,-0.011021
3.89,-0.010391
3.891,-0.010994
3.892,-0.012496
3.893,-0.013733
3.894,-0.013644
3.895,-0.012122
3.896,-0.010159
3.897,-0.009126
3.898,-0.009748
3.899,-0.011584
3.9,-0.013457
3.901,-0.014481
3.902,-0.01475
3.903,-0.015124
3.904,-0.016284
3.905,-0.017956
3.906,-0.019083
3.907,-0.01884
3.908,-0.017484
3.909,-0.016286
3.91,-0.016558
3.911,-0.018611
3.912,-0.021495
3.913,-0.023675
3.914,-0.023924
3.915,-0.021514
3.916,-0.015588
3.917,-0.004984
3.918,0.010328
3.919,0.027644
3.92,0.042743
3.921,0.053726
3.922,0.063084
3.923,0.075007
3.924,0.090358
3.925,0.103929
3.926,0.10666
3.927,0.091981
3.928,0.061438
3.929,0.024505
3.93,-0.007184
3.931,-0.026112
3.932,-0.031193
3.933,-0.025982
3.934,-0.015532
3.935,-0.004211
3.936,0.005065
3.937,0.010846
3.938,0.013027
3.939,0.012614
3.94,0.011156
3.941,0.009912
3.942,0.009222
3.943,0.008565
3.944,0.00728
3.945,0.005411
3.946,0.00392
3.947,0.003955
3.948,0.005767
3.949,0.008317
3.95,0.009992
3.951,0.009842
3.952,0.008236
3.953,0.006429
3.954,0.005453
3.955,0.005255
3.956,0.004694
3.957,0.002509
3.958,-0.001476
3.959,-0.00602
3.96,-0.009448
3.961,-0.011089
3.962,-0.011736
3.963,-0.012769
3.964,-0.014916
3.965,-0.017722
3.966,-0.019843
3.967,-0.019905
3.968,-0.017504
3.969,-0.01363
3.97,-0.009965
3.971,-0.007689
3.972,-0.00692
3.973,-0.006972
3.974,-0.00699
3.975,-0.006589
3.976,-0.006115
3.977,-0.006292
3.978,-0.007548
3.979,-0.009559
3.98,-0.011447
3.981,-0.012496
3.982,-0.0127
3.983,-0.012685
3.984,-0.013235
3.985,-0.01488
3.986,-0.017769
3.987,-0.021776
3.988,-0.026607
3.989,-0.031561
3.99,-0.035042
3.991,-0.034783
3.992,-0.029357
3.993,-0.019702
3.994,-0.00906
3.995,-0.00128
3.996,0.001243
3.997,-0.001417
3.998,-0.007195
3.999,-0.01332
4.0,-0.017627
4.001,-0.019373
4.002,-0.019232
4.003,-0.018573
4.004,-0.018506
4.005,-0.019225
4.006,-0.019954
4.007,-0.019608
4.008,-0.017794
4.009,-0.015256
4.01,-0.013261
4.011,-0.012576
4.012,-0.012956
4.013,-0.013431
4.014,-0.013205
4.015,-0.01248
4.016,-0.012366
4.017,-0.013898
4.018,-0.017078
4.019,-0.020737
4.02,-0.023266
4.021,-0.023767
4.022,-0.022748
4.023,-0.021671
4.024,-0.021741
4.025,-0.023107
4.026,-0.024946
4.027,-0.025962
4.028,-0.024873
4.029,-0.020657
4.03,-0.012434
4.031,0.000317
4.032,0.016601
4.033,0.033222
4.034,0.046647
4.035,0.056404
4.036,0.065867
4.037,0.078687
4.038,0.094098
4.039,0.105499
4.04,0.104068
4.041,0.08527
4.042,0.052932
4.043,0.017188
4.044,-0.011529
4.045,-0.02706
4.046,-0.028406
4.047,-0.018699
4.048,-0.003887
4.049,0.00923
4.05,0.015984
4.051,0.016391
4.052,0.014702
4.053,0.015481
4.054,0.019676
4.055,0.024534
4.056,0.026613
4.057,0.024285
4.058,0.018419
4.059,0.011902
4.06,0.007984
4.061,0.008083
4.062,0.011206
4.063,0.015399
4.064,0.018844
4.065,0.019909
4.066,0.018046
4.067,0.014872
4.068,0.012703
4.069,0.012048
4.07,0.011818
4.071,0.011176
4.072,0.00972
4.073,0.006991
4.074,0.003567
4.075,0.001587
4.076,0.002352
4.077,0.004136
4.078,0.003973
4.079,0.001394
4.08,-0.000962
4.081,-0.000657
4.082,0.001531
4.083,0.00252
4.084,0.000782
4.085,-0.001036
4.086,0.001632
4.087,0.009727
4.088,0.018518
4.089,0.022391
4.09,0.020383
4.091,0.015945
4.092,0.013149
4.093,0.01429
4.094,0.019224
4.095,0.025546
4.096,0.03024
4.097,0.03193
4.098,0.030957
4.099,0.027603
4.1,0.021618
4.101,0.013618
4.102,0.00655
4.103,0.005342
4.104,0.013151
4.105,0.027254
4.106,0.040527
4.107,0.047312
4.108,0.046822
4.109,0.042152
4.11,0.037806
4.111,0.037286
4.112,0.041056
4.113,0.046133
4.114,0.04836
4.115,0.045924
4.116,0.040889
4.117,0.037392
4.118,0.038223
4.119,0.042808
4.12,0.048316
4.121,0.052307
4.122,0.054086
4.123,0.054111
4.124,0.053003
4.125,0.051657
4.126,0.051717
4.127,0.054324
4.128,0.05823
4.129,0.060632
4.13,0.060043
4.131,0.057312
4.132,0.054291
4.133,0.052379
4.134,0.051918
4.135,0.052296
4.136,0.052619
4.137,0.052358
4.138,0.051617
4.139,0.051254
4.14,0.052846
4.141,0.058262
4.142,0.06868
4.143,0.082835
4.144,0.09548
4.145,0.099526
4.146,0.093013
4.147,0.084398
4.148,0.087889
4.149,0.110873
4.15,0.145356
4.151,0.172089
4.152,0.174187
4.153,0.148823
4.154,0.107798
4.155,0.068106
4.156,0.041618
4.157,0.031095
4.158,0.032628
4.159,0.040275
4.16,0.049231
4.161,0.056687
4.162,0.061394
4.163,0.063213
4.164,0.06308
4.165,0.062752
4.166,0.063712
4.167,0.065902
4.168,0.067668
4.169,0.067202
4.17,0.06425
4.171,0.060564
4.172,0.058557
4.173,0.059326
4.174,0.061799
4.175,0.063607
4.176,0.062872
4.177,0.059566
4.178,0.055382
4.179,0.052263
4.18,0.050892
4.181,0.0504
4.182,0.049422
4.183,0.047413
4.184,0.045087
4.185,0.043716
4.186,0.043893
4.187,0.044777
4.188,0.04456
4.189,0.041888
4.19,0.037067
4.191,0.031992
4.192,0.028839
4.193,0.028634
4.194,0.030748
4.195,0.033421
4.196,0.034824
4.197,0.034046
4.198,0.03145
4.199,0.028241
4.2,0.025573
4.201,0.023839
4.202,0.022673
4.203,0.021619
4.204,0.020714
4.205,0.020352
4.206,0.020653
4.207,0.021089
4.208,0.020788
4.209,0.019299
4.21,0.017143
4.211,0.015508
4.212,0.015218
4.213,0.015839
4.214,0.015895
4.215,0.014321
4.216,0.011874
4.217,0.010699
4.218,0.012251
4.219,0.01571
4.22,0.018389
4.221,0.017673
4.222,0.012907
4.223,0.005728
4.224,-0.001175
4.225,-0.005662
4.226,-0.007096
4.227,-0.006456
4.228,-0.005637
4.229,-0.006206
4.23,-0.008389
4.231,-0.011004
4.232,-0.012393
4.233,-0.011666
4.234,-0.009307
4.235,-0.006754
4.236,-0.005379
4.237,-0.005634
4.238,-0.006862
4.239,-0.007895
4.24,-0.008057
4.241,-0.00775
4.242,-0.008012
4.243,-0.009387
4.244,-0.011214
4.245,-0.01209
4.246,-0.011123
4.247,-0.008844
4.248,-0.006955
4.249,-0.007047
4.25,-0.009401
4.251,-0.012888
4.252,-0.015769
4.253,-0.016481
4.254,-0.013736
4.255,-0.006216
4.256,0.006754
4.257,0.023206
4.258,0.03803
4.259,0.046822
4.26,0.051206
4.261,0.058722
4.262,0.075543
4.263,0.098876
4.264,0.11687
4.265,0.116772
4.266,0.094521
4.267,0.057592
4.268,0.019443
4.269,-0.008683
4.27,-0.022333
4.271,-0.023378
4.272,-0.016813
4.273,-0.007706
4.274,0.000348
4.275,0.005527
4.276,0.007551
4.277,0.007303
4.278,0.006239
4.279,0.005588
4.28,0.005714
4.281,0.006162
4.282,0.006313
4.283,0.006045
4.284,0.005941
4.285,0.006863
4.286,0.009153
4.287,0.012157
4.288,0.014555
4.289,0.015239
4.29,0.013971
4.291,0.011366
4.292,0.008354
4.293,0.005615
4.294,0.00325
4.295,0.000838
4.296,-0.002101
4.297,-0.005525
4.298,-0.008819
4.299,-0.011336
4.3,-0.01289
4.301,-0.0138
4.302,-0.014587
4.303,-0.015513
4.304,-0.01628
4.305,-0.016272
4.306,-0.015167
4.307,-0.013307
4.308,-0.011509
4.309,-0.010565
4.31,-0.010797
4.311,-0.011904
4.312,-0.01322
4.313,-0.014193
4.314,-0.014705
4.315,-0.015067
4.316,-0.015797
4.317,-0.017318
4.318,-0.019631
4.319,-0.022208
4.32,-0.024328
4.321,-0.025602
4.322,-0.026117
4.323,-0.026095
4.324,-0.025468
4.325,-0.023893
4.326,-0.021275
4.327,-0.018377
4.328,-0.016827
4.329,-0.018204
4.33,-0.02267
4.331,-0.02822
4.332,-0.031482
4.333,-0.030019
4.334,-0.024277
4.335,-0.017357
4.336,-0.012934
4.337,-0.013028
4.338,-0.017112
4.339,-0.023024
4.34,-0.028644
4.341,-0.032862
4.342,-0.035388
4.343,-0.036188
4.344,-0.035348
4.345,-0.033268
4.346,-0.030636
4.347,-0.028117
4.348,-0.026126
4.349,-0.024844
4.35,-0.024339
4.351,-0.024625
4.352,-0.025598
4.353,-0.026929
4.354,-0.028114
4.355,-0.028799
4.356,-0.02915
4.357,-0.029812
4.358,-0.031343
4.359,-0.03361
4.36,-0.035816
4.361,-0.037018
4.362,-0.03665
4.363,-0.03481
4.364,-0.03227
4.365,-0.03009
4.366,-0.029008
4.367,-0.02909
4.368,-0.029789
4.369,-0.029941
4.37,-0.027625
4.371,-0.020574
4.372,-0.007714
4.373,0.008975
4.374,0.024654
4.375,0.035346
4.376,0.042143
4.377,0.05061
4.378,0.064936
4.379,0.082409
4.38,0.093537
4.381,0.08839
4.382,0.064458
4.383,0.029163
4.384,-0.005122
4.385,-0.028518
4.386,-0.037662
4.387,-0.034988
4.388,-0.025594
4.389,-0.014467
4.39,-0.005146
4.391,0.000618
4.392,0.002804
4.393,0.002591
4.394,0.001456
4.395,0.000453
4.396,-8.2e-05
4.397,-0.000471
4.398,-0.001221
4.399,-0.002392
4.4,-0.003403
4.401,-0.003501
4.402,-0.002351
4.403,-0.000152
4.404,0.002556
4.405,0.005062
4.406,0.00667
4.407,0.00697
4.408,0.006046
4.409,0.004316
4.41,0.002107
4.411,-0.000578
4.412,-0.003875
4.413,-0.007762
4.414,-0.011945
4.415,-0.016014
4.416,-0.019659
4.417,-0.022697
4.418,-0.024959
4.419,-0.026348
4.42,-0.026921
4.421,-0.026707
4.422,-0.02556
4.423,-0.023359
4.424,-0.020384
4.425,-0.01746
4.426,-0.015555
4.427,-0.015089
4.428,-0.015728
4.429,-0.016816
4.43,-0.017909
4.431,-0.019043
4.432,-0.020608
4.433,-0.022885
4.434,-0.025679
4.435,-0.028375
4.436,-0.030327
4.437,-0.031278
4.438,-0.031468
4.439,-0.031265
4.44,-0.030759
4.441,-0.029888
4.442,-0.028961
4.443,-0.028816
4.444,-0.030184
4.445,-0.0328
4.446,-0.035051
4.447,-0.034626
4.448,-0.030137
4.449,-0.022537
4.45,-0.014821
4.451,-0.010115
4.452,-0.009848
4.453,-0.013387
4.454,-0.018972
4.455,-0.024829
4.456,-0.029692
4.457,-0.032843
4.458,-0.034127
4.459,-0.033933
4.46,-0.032967
4.461,-0.031808
4.462,-0.030547
4.463,-0.028856
4.464,-0.026521
4.465,-0.023914
4.466,-0.02182
4.467,-0.020755
4.468,-0.020543
4.469,-0.020552
4.47,-0.020311
4.471,-0.019941
4.472,-0.020104
4.473,-0.021507
4.474,-0.024296
4.475,-0.027793
4.476,-0.030854
4.477,-0.032665
4.478,-0.033235
4.479,-0.033194
4.48,-0.033206
4.481,-0.033476
4.482,-0.033608
4.483,-0.032841
4.484,-0.030309
4.485,-0.025039
4.486,-0.0158
4.487,-0.001733
4.488,0.015925
4.489,0.033129
4.49,0.045672
4.491,0.053209
4.492,0.059799
4.493,0.06972
4.494,0.082463
4.495,0.091418
4.496,0.087855
4.497,0.067699
4.498,0.035401
4.499,0.001442
4.5,-0.024019
4.501,-0.036071
4.502,-0.035682
4.503,-0.027276
4.504,-0.015867
4.505,-0.005237
4.506,0.002614
4.507,0.007212
4.508,0.009185
4.509,0.009794
4.51,0.010229
4.511,0.010844
4.512,0.011056
4.513,0.010098
4.514,0.007876
4.515,0.005159
4.516,0.003024
4.517,0.00213
4.518,0.002421
4.519,0.003241
4.52,0.003648
4.521,0.002924
4.522,0.001135
4.523,-0.000835
4.524,-0.001947
4.525,-0.001829
4.526,-0.001103
4.527,-0.001008
4.528,-0.002534
4.529,-0.005695
4.53,-0.009556
4.531,-0.013037
4.532,-0.015755
4.533,-0.018062
4.534,-0.020358
4.535,-0.022545
4.536,-0.024134
4.537,-0.024693
4.538,-0.024113
4.539,-0.02263
4.54,-0.02078
4.541,-0.019182
4.542,-0.018197
4.543,-0.017765
4.544,-0.017535
4.545,-0.017248
4.546,-0.017091
4.547,-0.017609
4.548,-0.019133
4.549,-0.021358
4.55,-0.023532
4.551,-0.02505
4.552,-0.025844
4.553,-0.026272
4.554,-0.026711
4.555,-0.027296
4.556,-0.028076
4.557,-0.029279
4.558,-0.031228
4.559,-0.033906
4.56,-0.036533
4.561,-0.037471
4.562,-0.034933
4.563,-0.028427
4.564,-0.019609
4.565,-0.011565
4.566,-0.007106
4.567,-0.00733
4.568,-0.011341
4.569,-0.017091
4.57,-0.022521
4.571,-0.026339
4.572,-0.02826
4.573,-0.028791
4.574,-0.028751
4.575,-0.028762
4.576,-0.028929
4.577,-0.028876
4.578,-0.028126
4.579,-0.026612
4.58,-0.024882
4.581,-0.023771
4.582,-0.023816
4.583,-0.02489
4.584,-0.02632
4.585,-0.027407
4.586,-0.027963
4.587,-0.028387
4.588,-0.029166
4.589,-0.030328
4.59,-0.031373
4.591,-0.031712
4.592,-0.031179
4.593,-0.030157
4.594,-0.029334
4.595,-0.029279
4.596,-0.030031
4.597,-0.031009
4.598,-0.031296
4.599,-0.029825
4.6,-0.025189
4.601,-0.015701
4.602,-0.000643
4.603,0.017914
4.604,0.035352
4.605,0.047989
4.606,0.056494
4.607,0.065033
4.608,0.076607
4.609,0.08896
4.61,0.094705
4.611,0.086326
4.612,0.062491
4.613,0.029986
4.614,-0.000517
4.615,-0.020731
4.616,-0.028132
4.617,-0.025243
4.618,-0.016744
4.619,-0.006852
4.62,0.001655
4.621,0.007265
4.622,0.009581
4.623,0.009361
4.624,0.008103
4.625,0.007152
4.626,0.006959
4.627,0.007014
4.628,0.006487
4.629,0.005079
4.63,0.003405
4.631,0.002582
4.632,0.003321
4.633,0.005306
4.634,0.007436
4.635,0.008627
4.636,0.00849
4.637,0.007474
4.638,0.006464
4.639,0.006017
4.64,0.005853
4.641,0.005084
4.642,0.002988
4.643,-0.000371
4.644,-0.004188
4.645,-0.007559
4.646,-0.010173
4.647,-0.012483
4.648,-0.015155
4.649,-0.018298
4.65,-0.021214
4.651,-0.022904
4.652,-0.022794
4.653,-0.021078
4.654,-0.018527
4.655,-0.016038
4.656,-0.014231
4.657,-0.013295
4.658,-0.01308
4.659,-0.013319
4.66,-0.01385
4.661,-0.014762
4.662,-0.01632
4.663,-0.018595
4.664,-0.021137
4.665,-0.023091
4.666,-0.023804
4.667,-0.02335
4.668,-0.022417
4.669,-0.021655
4.67,-0.021314
4.671,-0.021528
4.672,-0.022633
4.673,-0.024941
4.674,-0.028135
4.675,-0.030872
4.676,-0.031129
4.677,-0.027455
4.678,-0.020271
4.679,-0.011953
4.68,-0.005586
4.681,-0.00331
4.682,-0.005296
4.683,-0.009965
4.684,-0.015119
4.685,-0.01905
4.686,-0.021036
4.687,-0.021324
4.688,-0.020806
4.689,-0.020508
4.69,-0.021004
4.691,-0.022076
4.692,-0.022899
4.693,-0.022756
4.694,-0.021679
4.695,-0.020354
4.696,-0.019519
4.697,-0.019498
4.698,-0.020109
4.699,-0.020798
4.7,-0.021009
4.701,-0.02066
4.702,-0.020273
4.703,-0.020502
4.704,-0.021483
4.705,-0.022664
4.706,-0.023312
4.707,-0.023212
4.708,-0.02283
4.709,-0.022875
4.71,-0.02366
4.711,-0.024876
4.712,-0.025851
4.713,-0.025836
4.714,-0.023878
4.715,-0.018437
4.716,-0.007775
4.717,0.0083
4.718,0.026934
4.719,0.043587
4.72,0.0558
4.721,0.065307
4.722,0.0758
4.723,0.088372
4.724,0.098746
4.725,0.099071
4.726,0.08385
4.727,0.0551
4.728,0.021698
4.729,-0.006165
4.73,-0.022227
4.731,-0.02579
4.732,-0.020173
4.733,-0.010108
4.734,0.000251
4.735,0.008212
4.736,0.012657
4.737,0.013798
4.738,0.012842
4.739,0.011393
4.74,0.0106
4.741,0.010601
4.742,0.010722
4.743,0.010261
4.744,0.009204
4.745,0.00826
4.746,0.00825
4.747,0.009432
4.748,0.011253
4.749,0.012668
4.75,0.012825
4.751,0.011633
4.752,0.009797
4.753,0.008221
4.754,0.007275
4.755,0.006518
4.756,0.005052
4.757,0.002272
4.758,-0.001573
4.759,-0.005522
4.76,-0.008625
4.761,-0.010595
4.762,-0.011858
4.763,-0.012986
4.764,-0.014062
4.765,-0.014583
4.766,-0.013963
4.767,-0.012061
4.768,-0.009285
4.769,-0.006389
4.77,-0.004153
4.771,-0.003019
4.772,-0.002898
4.773,-0.00325
4.774,-0.00346
4.775,-0.003351
4.776,-0.00343
4.777,-0.00453
4.778,-0.007016
4.779,-0.010258
4.78,-0.01301
4.781,-0.014405
4.782,-0.014527
4.783,-0.014064
4.784,-0.013602
4.785,-0.013436
4.786,-0.013919
4.787,-0.01559
4.788,-0.018693
4.789,-0.022537
4.79,-0.0253
4.791,-0.024783
4.792,-0.019997
4.793,-0.012251
4.794,-0.004575
4.795,8.4e-05
4.796,0.000475
4.797,-0.002615
4.798,-0.007346
4.799,-0.012057
4.8,-0.015809
4.801,-0.018313
4.802,-0.019751
4.803,-0.020615
4.804,-0.021352
4.805,-0.022023
4.806,-0.022259
4.807,-0.021557
4.808,-0.019778
4.809,-0.017457
4.81,-0.015556
4.811,-0.014798
4.812,-0.015188
4.813,-0.016097
4.814,-0.01678
4.815,-0.016966
4.816,-0.017141
4.817,-0.018175
4.818,-0.020435
4.819,-0.023217
4.82,-0.025219
4.821,-0.025617
4.822,-0.02469
4.823,-0.023538
4.824,-0.023209
4.825,-0.023929
4.826,-0.02509
4.827,-0.02578
4.828,-0.025117
4.829,-0.021979
4.83,-0.014694
4.831,-0.00186
4.832,0.015628
4.833,0.033775
4.834,0.048129
4.835,0.057697
4.836,0.065666
4.837,0.075845
4.838,0.088165
4.839,0.097058
4.84,0.094479
4.841,0.076055
4.842,0.045336
4.843,0.012104
4.844,-0.013673
4.845,-0.026973
4.846,-0.028528
4.847,-0.022325
4.848,-0.01279
4.849,-0.003344
4.85,0.003879
4.851,0.00797
4.852,0.00922
4.853,0.008855
4.854,0.008335
4.855,0.008537
4.856,0.00935
4.857,0.009938
4.858,0.009538
4.859,0.008253
4.86,0.007075
4.861,0.007031
4.862,0.008296
4.863,0.010067
4.864,0.011202
4.865,0.011018
4.866,0.009665
4.867,0.007815
4.868,0.005976
4.869,0.004061
4.87,0.001567
4.871,-0.001862
4.872,-0.005983
4.873,-0.009961
4.874,-0.012832
4.875,-0.014144
4.876,-0.014261
4.877,-0.014101
4.878,-0.014477
4.879,-0.015512
4.88,-0.016598
4.881,-0.016882
4.882,-0.015913
4.883,-0.014064
4.884,-0.0124
4.885,-0.0119
4.886,-0.012677
4.887,-0.013925
4.888,-0.014651
4.889,-0.014533
4.89,-0.014149
4.891,-0.014446
4.892,-0.015918
4.893,-0.018161
4.894,-0.02009
4.895,-0.0207
4.896,-0.01986
4.897,-0.018431
4.898,-0.017455
4.899,-0.017361
4.9,-0.018125
4.901,-0.019877
4.902,-0.022973
4.903,-0.027378
4.904,-0.031925
4.905,-0.03429
4.906,-0.032272
4.907,-0.025654
4.908,-0.016755
4.909,-0.009058
4.91,-0.005222
4.911,-0.005887
4.912,-0.009843
4.913,-0.015022
4.914,-0.019443
4.915,-0.021861
4.916,-0.022131
4.917,-0.021155
4.918,-0.02022
4.919,-0.0201
4.92,-0.020582
4.921,-0.02082
4.922,-0.020162
4.923,-0.018755
4.924,-0.017471
4.925,-0.017254
4.926,-0.018394
4.927,-0.020262
4.928,-0.021711
4.929,-0.021896
4.93,-0.020979
4.931,-0.020026
4.932,-0.020047
4.933,-0.02108
4.934,-0.022172
4.935,-0.022252
4.936,-0.021067
4.937,-0.019393
4.938,-0.018436
4.939,-0.018944
4.94,-0.020688
4.941,-0.022652
4.942,-0.023626
4.943,-0.022466
4.944,-0.01781
4.945,-0.008135
4.946,0.006842
4.947,0.024472
4.948,0.04013
4.949,0.051189
4.95,0.059668
4.951,0.069898
4.952,0.083401
4.953,0.095893
4.954,0.099047
4.955,0.08635
4.956,0.058708
4.957,0.024691
4.958,-0.004814
4.959,-0.022613
4.96,-0.027528
4.961,-0.022865
4.962,-0.013441
4.963,-0.003372
4.964,0.004656
4.965,0.009328
4.966,0.010678
4.967,0.009923
4.968,0.008701
4.969,0.008072
4.97,0.008026
4.971,0.00784
4.972,0.006909
4.973,0.005382
4.974,0.004098
4.975,0.003974
4.976,0.005352
4.977,0.007681
4.978,0.009801
4.979,0.010691
4.98,0.010083
4.981,0.008502
4.982,0.006779
4.983,0.005394
4.984,0.004096
4.985,0.002146
4.986,-0.00094
4.987,-0.004859
4.988,-0.008683
4.989,-0.011511
4.99,-0.0131
4.991,-0.014034
4.992,-0.015245
4.993,-0.017162
4.994,-0.0192
4.995,-0.020186
4.996,-0.01942
4.997,-0.017377
4.998,-0.015369
4.999,-0.014496
5.0,-0.014843
5.001,-0.015528
5.002,-0.015544
5.003,-0.014681
5.004,-0.013698
5.005,-0.013663
5.006,-0.015104
5.007,-0.017655
5.008,-0.020351
5.009,-0.022293
5.01,-0.023229
5.011,-0.023628
5.012,-0.024222
5.013,-0.025425
5.014,-0.02715
5.015,-0.029135
5.016,-0.031393
5.017,-0.034136
5.018,-0.037006
5.019,-0.038411
5.02,-0.036233
5.021,-0.029676
5.022,-0.02034
5.023,-0.011454
5.024,-0.006031
5.025,-0.005351
5.026,-0.008736
5.027,-0.014395
5.028,-0.020378
5.029,-0.025125
5.03,-0.027844
5.031,-0.028818
5.032,-0.029169
5.033,-0.029897
5.034,-0.031015
5.035,-0.031655
5.036,-0.030973
5.037,-0.028966
5.038,-0.02653
5.039,-0.024803
5.04,-0.02434
5.041,-0.024729
5.042,-0.025009
5.043,-0.024597
5.044,-0.023872
5.045,-0.023852
5.046,-0.025285
5.047,-0.027911
5.048,-0.030551
5.049,-0.031943
5.05,-0.031681
5.051,-0.030538
5.052,-0.029919
5.053,-0.030808
5.054,-0.032968
5.055,-0.035088
5.056,-0.035697
5.057,-0.033717
5.058,-0.028113
5.059,-0.017646
5.06,-0.002048
5.061,0.016264
5.062,0.03286
5.063,0.044988
5.064,0.054399
5.065,0.065465
5.066,0.080074
5.067,0.094163
5.068,0.09914
5.069,0.087769
5.07,0.060224
5.071,0.024792
5.072,-0.007307
5.073,-0.027998
5.074,-0.035004
5.075,-0.030914
5.076,-0.020648
5.077,-0.009088
5.078,0.000343
5.079,0.006141
5.08,0.008502
5.081,0.008679
5.082,0.008177
5.083,0.008081
5.084,0.008605
5.085,0.008981
5.086,0.008067
5.087,0.005533
5.088,0.002494
5.089,0.000712
5.09,0.001105
5.091,0.003053
5.092,0.005024
5.093,0.005748
5.094,0.004999
5.095,0.003517
5.096,0.002324
5.097,0.001967
5.098,0.002141
5.099,0.001916
5.1,0.000492
5.101,-0.002091
5.102,-0.005023
5.103,-0.007524
5.104,-0.009508
5.105,-0.011552
5.106,-0.014338
5.107,-0.017952
5.108,-0.021527
5.109,-0.023635
5.11,-0.023282
5.111,-0.020727
5.112,-0.017406
5.113,-0.014912
5.114,-0.013847
5.115,-0.013527
5.116,-0.012788
5.117,-0.011152
5.118,-0.00932
5.119,-0.008596
5.12,-0.009784
5.121,-0.012516
5.122,-0.015601
5.123,-0.017953
5.124,-0.01926
5.125,-0.020049
5.126,-0.021161
5.127,-0.023082
5.128,-0.025758
5.129,-0.028973
5.13,-0.032684
5.131,-0.036791
5.132,-0.040457
5.133,-0.041846
5.134,-0.039013
5.135,-0.031541
5.136,-0.021428
5.137,-0.0122
5.138,-0.006896
5.139,-0.006562
5.14,-0.010179
5.141,-0.015658
5.142,-0.020986
5.143,-0.024926
5.144,-0.027198
5.145,-0.028326
5.146,-0.029231
5.147,-0.030564
5.148,-0.032105
5.149,-0.032833
5.15,-0.031822
5.151,-0.029193
5.152,-0.026137
5.153,-0.023974
5.154,-0.023113
5.155,-0.022817
5.156,-0.021983
5.157,-0.020193
5.158,-0.018108
5.159,-0.016959
5.16,-0.017634
5.161,-0.019995
5.162,-0.02288
5.163,-0.024906
5.164,-0.025595
5.165,-0.025801
5.166,-0.026937
5.167,-0.029638
5.168,-0.033055
5.169,-0.035372
5.17,-0.03497
5.171,-0.031043
5.172,-0.023177
5.173,-0.010811
5.174,0.005961
5.175,0.024774
5.176,0.041526
5.177,0.053919
5.178,0.063986
5.179,0.07586
5.18,0.090773
5.181,0.104143
5.182,0.107399
5.183,0.093906
5.184,0.064644
5.185,0.028344
5.186,-0.003907
5.187,-0.024512
5.188,-0.031698
5.189,-0.028231
5.19,-0.01869
5.191,-0.007488
5.192,0.00202
5.193,0.008031
5.194,0.010527
5.195,0.010849
5.196,0.010711
5.197,0.011155
5.198,0.012052
5.199,0.012473
5.2,0.011627
5.201,0.009607
5.202,0.007431
5.203,0.006343
5.204,0.006898
5.205,0.00848
5.206,0.00964
5.207,0.009083
5.208,0.006634
5.209,0.003371
5.21,0.000744
5.211,-0.000603
5.212,-0.001266
5.213,-0.002404
5.214,-0.004635
5.215,-0.007484
5.216,-0.009792
5.217,-0.010746
5.218,-0.01064
5.219,-0.01065
5.22,-0.011841
5.221,-0.014299
5.222,-0.017044
5.223,-0.018761
5.224,-0.018818
5.225,-0.017766
5.226,-0.016879
5.227,-0.017112
5.228,-0.018376
5.229,-0.019705
5.23,-0.020121
5.231,-0.019405
5.232,-0.018159
5.233,-0.017258
5.234,-0.017203
5.235,-0.017773
5.236,-0.018204
5.237,-0.017861
5.238,-0.016842
5.239,-0.01596
5.24,-0.016075
5.241,-0.017455
5.242,-0.019848
5.243,-0.022983
5.244,-0.026779
5.245,-0.030983
5.246,-0.03457
5.247,-0.035662
5.248,-0.032598
5.249,-0.025493
5.25,-0.016751
5.251,-0.009769
5.252,-0.006875
5.253,-0.008252
5.254,-0.012371
5.255,-0.017075
5.256,-0.020488
5.257,-0.021582
5.258,-0.020463
5.259,-0.018332
5.26,-0.016857
5.261,-0.017043
5.262,-0.018512
5.263,-0.019898
5.264,-0.02006
5.265,-0.019038
5.266,-0.017927
5.267,-0.017806
5.268,-0.018751
5.269,-0.019847
5.27,-0.020112
5.271,-0.019397
5.272,-0.018453
5.273,-0.018267
5.274,-0.01922
5.275,-0.020702
5.276,-0.021562
5.277,-0.021117
5.278,-0.019805
5.279,-0.01886
5.28,-0.019357
5.281,-0.021458
5.282,-0.02431
5.283,-0.026461
5.284,-0.026429
5.285,-0.023038
5.286,-0.015334
5.287,-0.002786
5.288,0.01351
5.289,0.030148
5.29,0.043543
5.291,0.05347
5.292,0.0635
5.293,0.077053
5.294,0.092862
5.295,0.103992
5.296,0.101763
5.297,0.082283
5.298,0.050091
5.299,0.015467
5.3,-0.011678
5.301,-0.026121
5.302,-0.027956
5.303,-0.020813
5.304,-0.009571
5.305,0.0014
5.306,0.009238
5.307,0.012957
5.308,0.013266
5.309,0.0119
5.31,0.010613
5.311,0.010282
5.312,0.010638
5.313,0.010775
5.314,0.010104
5.315,0.009005
5.316,0.008568
5.317,0.00961
5.318,0.01181
5.319,0.013751
5.32,0.013963
5.321,0.012055
5.322,0.008918
5.323,0.005957
5.324,0.004093
5.325,0.003217
5.326,0.002389
5.327,0.000661
5.328,-0.002076
5.329,-0.004935
5.33,-0.006767
5.331,-0.007248
5.332,-0.007252
5.333,-0.008083
5.334,-0.010314
5.335,-0.013244
5.336,-0.015353
5.337,-0.015388
5.338,-0.013315
5.339,-0.010451
5.34,-0.008564
5.341,-0.008576
5.342,-0.009894
5.343,-0.01101
5.344,-0.010839
5.345,-0.009585
5.346,-0.008439
5.347,-0.0085
5.348,-0.009884
5.349,-0.011659
5.35,-0.012624
5.351,-0.012308
5.352,-0.011348
5.353,-0.010851
5.354,-0.011439
5.355,-0.013049
5.356,-0.015551
5.357,-0.019139
5.358,-0.023889
5.359,-0.029026
5.36,-0.032699
5.361,-0.032698
5.362,-0.027945
5.363,-0.019611
5.364,-0.010673
5.365,-0.004228
5.366,-0.001967
5.367,-0.0037
5.368,-0.007867
5.369,-0.012442
5.37,-0.015755
5.371,-0.017134
5.372,-0.017165
5.373,-0.017186
5.374,-0.018207
5.375,-0.020117
5.376,-0.021856
5.377,-0.022345
5.378,-0.021395
5.379,-0.019898
5.38,-0.019196
5.381,-0.020017
5.382,-0.021762
5.383,-0.022955
5.384,-0.022552
5.385,-0.020842
5.386,-0.019182
5.387,-0.01888
5.388,-0.020133
5.389,-0.021853
5.39,-0.022558
5.391,-0.021601
5.392,-0.019651
5.393,-0.018097
5.394,-0.018025
5.395,-0.019511
5.396,-0.021589
5.397,-0.022889
5.398,-0.022306
5.399,-0.018906
5.4,-0.01147
5.401,0.000885
5.402,0.016912
5.403,0.032935
5.404,0.045859
5.405,0.056484
5.406,0.068691
5.407,0.084835
5.408,0.101858
5.409,0.111643
5.41,0.105905
5.411,0.082467
5.412,0.047647
5.413,0.012627
5.414,-0.012804
5.415,-0.024389
5.416,-0.023588
5.417,-0.015132
5.418,-0.004265
5.419,0.00504
5.42,0.010795
5.421,0.012992
5.422,0.013055
5.423,0.012892
5.424,0.013789
5.425,0.015647
5.426,0.017196
5.427,0.017245
5.428,0.015925
5.429,0.014674
5.43,0.014865
5.431,0.016532
5.432,0.018451
5.433,0.019211
5.434,0.018191
5.435,0.015886
5.436,0.013407
5.437,0.011538
5.438,0.01022
5.439,0.008826
5.44,0.006732
5.441,0.003714
5.442,0.000166
5.443,-0.002914
5.444,-0.004513
5.445,-0.004535
5.446,-0.00418
5.447,-0.005119
5.448,-0.007958
5.449,-0.011455
5.45,-0.013381
5.451,-0.012254
5.452,-0.008479
5.453,-0.004119
5.454,-0.00146
5.455,-0.001369
5.456,-0.002803
5.457,-0.003876
5.458,-0.003402
5.459,-0.001644
5.46,-5.4e-05
5.461,-0.000361
5.462,-0.003371
5.463,-0.008051
5.464,-0.011796
5.465,-0.012346
5.466,-0.00984
5.467,-0.006571
5.468,-0.00468
5.469,-0.004684
5.47,-0.00629
5.471,-0.009608
5.472,-0.01466
5.473,-0.020045
5.474,-0.022867
5.475,-0.020489
5.476,-0.012559
5.477,-0.001588
5.478,0.008246
5.479,0.013093
5.48,0.011231
5.481,0.003905
5.482,-0.005323
5.483,-0.012444
5.484,-0.015
5.485,-0.013059
5.486,-0.008723
5.487,-0.004539
5.488,-0.00193
5.489,-0.000874
5.49,-0.001
5.491,-0.002419
5.492,-0.004957
5.493,-0.006954
5.494,-0.005742
5.495,0.00031
5.496,0.009887
5.497,0.018508
5.498,0.02115
5.499,0.016583
5.5,0.008952
5.501,0.004113
5.502,0.004509
5.503,0.00817
5.504,0.012036
5.505,0.014526
5.506,0.01477
5.507,0.0119
5.508,0.006895
5.509,0.003513
5.51,0.005228
5.511,0.011973
5.512,0.021431
5.513,0.032834
5.514,0.047433
5.515,0.064138
5.516,0.076703
5.517,0.079536
5.518,0.0774
5.519,0.08457
5.52,0.110401
5.521,0.147145
5.522,0.17454
5.523,0.176545
5.524,0.152871
5.525,0.115519
5.526,0.078
5.527,0.049154
5.528,0.033055
5.529,0.030496
5.53,0.039912
5.531,0.057321
5.532,0.076063
5.533,0.088614
5.534,0.09073
5.535,0.084415
5.536,0.076153
5.537,0.071498
5.538,0.071271
5.539,0.072564
5.54,0.072441
5.541,0.07044
5.542,0.068479
5.543,0.069249
5.544,0.074221
5.545,0.082184
5.546,0.089741
5.547,0.093691
5.548,0.093042
5.549,0.089061
5.55,0.083945
5.551,0.07932
5.552,0.07551
5.553,0.072072
5.554,0.068939
5.555,0.066836
5.556,0.06645
5.557,0.067481
5.558,0.068797
5.559,0.06932
5.56,0.068559
5.561,0.066692
5.562,0.064529
5.563,0.06311
5.564,0.062872
5.565,0.063271
5.566,0.063448
5.567,0.063037
5.568,0.062193
5.569,0.061227
5.57,0.060397
5.571,0.05973
5.572,0.059001
5.573,0.058068
5.574,0.057157
5.575,0.056657
5.576,0.056611
5.577,0.056502
5.578,0.05557
5.579,0.053313
5.58,0.049829
5.581,0.045881
5.582,0.042521
5.583,0.040411
5.584,0.039572
5.585,0.039952
5.586,0.041973
5.587,0.046064
5.588,0.051622
5.589,0.05672
5.59,0.059008
5.591,0.057033
5.592,0.051072
5.593,0.043041
5.594,0.035527
5.595,0.0305
5.596,0.02856
5.597,0.028992
5.598,0.030263
5.599,0.030731
5.6,0.029518
5.601,0.027068
5.602,0.024815
5.603,0.024083
5.604,0.025171
5.605,0.027245
5.606,0.028999
5.607,0.029642
5.608,0.029401
5.609,0.029032
5.61,0.028885
5.611,0.028534
5.612,0.027293
5.613,0.025026
5.614,0.022458
5.615,0.020722
5.616,0.020429
5.617,0.021069
5.618,0.021328
5.619,0.020044
5.62,0.017029
5.621,0.013174
5.622,0.009928
5.623,0.008754
5.624,0.011067
5.625,0.018296
5.626,0.031004
5.627,0.047091
5.628,0.061587
5.629,0.070419
5.63,0.075365
5.631,0.083644
5.632,0.100597
5.633,0.122419
5.634,0.136837
5.635,0.13188
5.636,0.105183
5.637,0.065871
5.638,0.028013
5.639,0.002027
5.64,-0.00928
5.641,-0.009084
5.642,-0.002651
5.643,0.005578
5.644,0.012887
5.645,0.01799
5.646,0.020643
5.647,0.021419
5.648,0.021384
5.649,0.021543
5.65,0.022293
5.651,0.023268
5.652,0.023777
5.653,0.023576
5.654,0.023306
5.655,0.024035
5.656,0.026249
5.657,0.029219
5.658,0.031366
5.659,0.031319
5.66,0.02881
5.661,0.024706
5.662,0.020302
5.663,0.016563
5.664,0.013757
5.665,0.011545
5.666,0.009413
5.667,0.00713
5.668,0.004911
5.669,0.003162
5.67,0.002021
5.671,0.001147
5.672,5.8e-05
5.673,-0.001323
5.674,-0.002528
5.675,-0.002957
5.676,-0.002358
5.677,-0.000982
5.678,0.000507
5.679,0.001316
5.68,0.000886
5.681,-0.000806
5.682,-0.003183
5.683,-0.005376
5.684,-0.006773
5.685,-0.007346
5.686,-0.007537
5.687,-0.007836
5.688,-0.008421
5.689,-0.009182
5.69,-0.009975
5.691,-0.010754
5.692,-0.011462
5.693,-0.011867
5.694,-0.01155
5.695,-0.01019
5.696,-0.007944
5.697,-0.005656
5.698,-0.00469
5.699,-0.006306
5.7,-0.01072
5.701,-0.016367
5.702,-0.020271
5.703,-0.019912
5.704,-0.015238
5.705,-0.008856
5.706,-0.004221
5.707,-0.003452
5.708,-0.006394
5.709,-0.011368
5.71,-0.016552
5.711,-0.020732
5.712,-0.023323
5.713,-0.024219
5.714,-0.023781
5.715,-0.022754
5.716,-0.021908
5.717,-0.021599
5.718,-0.021642
5.719,-0.021712
5.72,-0.021824
5.721,-0.02231
5.722,-0.023374
5.723,-0.024801
5.724,-0.026126
5.725,-0.027023
5.726,-0.027516
5.727,-0.027893
5.728,-0.028456
5.729,-0.029266
5.73,-0.030059
5.731,-0.030394
5.732,-0.029939
5.733,-0.028701
5.734,-0.026997
5.735,-0.025309
5.736,-0.02416
5.737,-0.023894
5.738,-0.024332
5.739,-0.02454
5.74,-0.022745
5.741,-0.01659
5.742,-0.004442
5.743,0.012439
5.744,0.029437
5.745,0.041964
5.746,0.050009
5.747,0.058318
5.748,0.071194
5.749,0.086925
5.75,0.097139
5.751,0.092296
5.752,0.069362
5.753,0.034937
5.754,0.001058
5.755,-0.022198
5.756,-0.031285
5.757,-0.028691
5.758,-0.01965
5.759,-0.009213
5.76,-0.000864
5.761,0.003769
5.762,0.004705
5.763,0.003135
5.764,0.00071
5.765,-0.001253
5.766,-0.002289
5.767,-0.002665
5.768,-0.002758
5.769,-0.002616
5.77,-0.001989
5.771,-0.000538
5.772,0.001949
5.773,0.005288
5.774,0.008766
5.775,0.011377
5.776,0.012275
5.777,0.011182
5.778,0.008551
5.779,0.005216
5.78,0.001736
5.781,-0.001896
5.782,-0.005949
5.783,-0.010442
5.784,-0.014901
5.785,-0.018649
5.786,-0.021348
5.787,-0.023165
5.788,-0.024394
5.789,-0.025087
5.79,-0.025088
5.791,-0.024201
5.792,-0.022291
5.793,-0.019466
5.794,-0.016267
5.795,-0.013581
5.796,-0.012211
5.797,-0.012395
5.798,-0.013699
5.799,-0.015437
5.8,-0.017232
5.801,-0.019171
5.802,-0.021481
5.803,-0.024145
5.804,-0.026755
5.805,-0.028688
5.806,-0.029497
5.807,-0.029153
5.808,-0.027961
5.809,-0.026371
5.81,-0.024838
5.811,-0.023752
5.812,-0.023476
5.813,-0.024385
5.814,-0.026649
5.815,-0.029761
5.816,-0.032164
5.817,-0.03168
5.818,-0.027024
5.819,-0.019231
5.82,-0.011469
5.821,-0.007213
5.822,-0.008164
5.823,-0.013464
5.824,-0.020637
5.825,-0.027246
5.826,-0.031922
5.827,-0.034347
5.828,-0.034877
5.829,-0.034263
5.83,-0.033337
5.831,-0.032558
5.832,-0.031788
5.833,-0.03052
5.834,-0.028449
5.835,-0.025952
5.836,-0.024018
5.837,-0.023527
5.838,-0.024503
5.839,-0.026147
5.84,-0.027595
5.841,-0.028608
5.842,-0.02955
5.843,-0.03084
5.844,-0.032487
5.845,-0.034056
5.846,-0.034939
5.847,-0.034771
5.848,-0.033797
5.849,-0.032775
5.85,-0.032376
5.851,-0.03268
5.852,-0.033161
5.853,-0.033012
5.854,-0.031422
5.855,-0.027455
5.856,-0.019742
5.857,-0.007012
5.858,0.010061
5.859,0.027759
5.86,0.041654
5.861,0.050833
5.862,0.05883
5.863,0.06961
5.864,0.082621
5.865,0.091446
5.866,0.087541
5.867,0.066899
5.868,0.034057
5.869,-0.000382
5.87,-0.026194
5.871,-0.038468
5.872,-0.038192
5.873,-0.02967
5.874,-0.017671
5.875,-0.006018
5.876,0.00277
5.877,0.007635
5.878,0.009013
5.879,0.008403
5.88,0.007475
5.881,0.007134
5.882,0.007168
5.883,0.006679
5.884,0.004981
5.885,0.002322
5.886,-0.00013
5.887,-0.00106
5.888,6.5e-05
5.889,0.002611
5.89,0.005187
5.891,0.006504
5.892,0.006077
5.893,0.004411
5.894,0.002537
5.895,0.001144
5.896,5.2e-05
5.897,-0.001446
5.898,-0.003833
5.899,-0.006977
5.9,-0.01028
5.901,-0.013132
5.902,-0.015375
5.903,-0.017373
5.904,-0.019548
5.905,-0.021802
5.906,-0.023425
5.907,-0.023683
5.908,-0.022464
5.909,-0.020422
5.91,-0.018605
5.911,-0.017828
5.912,-0.018109
5.913,-0.018639
5.914,-0.01843
5.915,-0.017169
5.916,-0.015503
5.917,-0.014549
5.918,-0.015103
5.919,-0.0171
5.92,-0.019648
5.921,-0.021667
5.922,-0.022661
5.923,-0.022938
5.924,-0.023142
5.925,-0.023708
5.926,-0.024829
5.927,-0.026766
5.928,-0.029782
5.929,-0.033637
5.93,-0.037186
5.931,-0.038519
5.932,-0.035857
5.933,-0.028958
5.934,-0.019822
5.935,-0.011736
5.936,-0.00731
5.937,-0.007124
5.938,-0.009959
5.939,-0.01407
5.94,-0.018144
5.941,-0.021486
5.942,-0.023847
5.943,-0.025347
5.944,-0.026369
5.945,-0.02725
5.946,-0.027977
5.947,-0.028194
5.948,-0.027503
5.949,-0.025853
5.95,-0.023745
5.951,-0.02201
5.952,-0.021252
5.953,-0.021444
5.954,-0.022012
5.955,-0.022352
5.956,-0.022412
5.957,-0.022743
5.958,-0.023908
5.959,-0.025835
5.96,-0.027689
5.961,-0.028424
5.962,-0.02762
5.963,-0.025884
5.964,-0.02442
5.965,-0.024153
5.966,-0.025134
5.967,-0.026563
5.968,-0.027244
5.969,-0.025929
5.97,-0.021233
5.971,-0.011624
5.972,0.003474
5.973,0.021943
5.974,0.039305
5.975,0.052143
5.976,0.061177
5.977,0.070149
5.978,0.081466
5.979,0.092673
5.98,0.096771
5.981,0.086938
5.982,0.062361
5.983,0.029798
5.984,-0.000493
5.985,-0.020523
5.986,-0.027735
5.987,-0.024432
5.988,-0.015229
5.989,-0.004701
5.99,0.003911
5.991,0.009115
5.992,0.011034
5.993,0.010913
5.994,0.010372
5.995,0.010518
5.996,0.011351
5.997,0.011941
5.998,0.011321
5.999,0.009382
6.0,0.007016
6.001,0.005398
6.002,0.005114
6.003,0.005826
6.004,0.006557
6.005,0.006386
6.006,0.005082
6.007,0.003204
6.008,0.001612
6.009,0.000795
6.01,0.000487
6.011,-0.000174
6.012,-0.00199
6.013,-0.004995
6.014,-0.00837
6.015,-0.011071
6.016,-0.012651
6.017,-0.013566
6.018,-0.014712
6.019,-0.016593
6.02,-0.018865
6.021,-0.020607
6.022,-0.021039
6.023,-0.020088
6.024,-0.018444
6.025,-0.017078
6.026,-0.016648
6.027,-0.017217
6.028,-0.018307
6.029,-0.019198
6.03,-0.019444
6.031,-0.01928
6.032,-0.019417
6.033,-0.020312
6.034,-0.021678
6.035,-0.022763
6.036,-0.023092
6.037,-0.022863
6.038,-0.022651
6.039,-0.022933
6.04,-0.023942
6.041,-0.025791
6.042,-0.028575
6.043,-0.032282
6.044,-0.036448
6.045,-0.03972
6.046,-0.04008
6.047,-0.036173
6.048,-0.02867
6.049,-0.020197
6.05,-0.013851
6.051,-0.011542
6.052,-0.013253
6.053,-0.01749
6.054,-0.022327
6.055,-0.026226
6.056,-0.028439
6.057,-0.029058
6.058,-0.028777
6.059,-0.028407
6.06,-0.02841
6.061,-0.028659
6.062,-0.028576
6.063,-0.027656
6.064,-0.026028
6.065,-0.024484
6.066,-0.02392
6.067,-0.02464
6.068,-0.026136
6.069,-0.02754
6.07,-0.028373
6.071,-0.028933
6.072,-0.029951
6.073,-0.031795
6.074,-0.033972
6.075,-0.035406
6.076,-0.035277
6.077,-0.033759
6.078,-0.031969
6.079,-0.031124
6.08,-0.031657
6.081,-0.032999
6.082,-0.034053
6.083,-0.033743
6.084,-0.031037
6.085,-0.024543
6.086,-0.012942
6.087,0.003199
6.088,0.020438
6.089,0.03469
6.09,0.044899
6.091,0.053802
6.092,0.064583
6.093,0.076675
6.094,0.084431
6.095,0.080274
6.096,0.0606
6.097,0.029534
6.098,-0.003057
6.099,-0.02744
6.1,-0.038806
6.101,-0.038023
6.102,-0.029388
6.103,-0.017819
6.104,-0.007054
6.105,0.000853
6.106,0.005316
6.107,0.006902
6.108,0.006877
6.109,0.006472
6.11,0.006178
6.111,0.005672
6.112,0.004462
6.113,0.002596
6.114,0.000793
6.115,-3.5e-05
6.116,0.000531
6.117,0.002157
6.118,0.004047
6.119,0.005387
6.12,0.005657
6.121,0.004818
6.122,0.003297
6.123,0.001677
6.124,0.000259
6.125,-0.001218
6.126,-0.003359
6.127,-0.006524
6.128,-0.010401
6.129,-0.014139
6.13,-0.016969
6.131,-0.018805
6.132,-0.020268
6.133,-0.022063
6.134,-0.024225
6.135,-0.025948
6.136,-0.026165
6.137,-0.024451
6.138,-0.021482
6.139,-0.018588
6.14,-0.01682
6.141,-0.016362
6.142,-0.016655
6.143,-0.016962
6.144,-0.016957
6.145,-0.016954
6.146,-0.01759
6.147,-0.01924
6.148,-0.021635
6.149,-0.023943
6.15,-0.025306
6.151,-0.025498
6.152,-0.025032
6.153,-0.024607
6.154,-0.024522
6.155,-0.02478
6.156,-0.025674
6.157,-0.027877
6.158,-0.031634
6.159,-0.035809
6.16,-0.03797
6.161,-0.035886
6.162,-0.029326
6.163,-0.020486
6.164,-0.012737
6.165,-0.00876
6.166,-0.009285
6.167,-0.013155
6.168,-0.018363
6.169,-0.023072
6.17,-0.026156
6.171,-0.027372
6.172,-0.027284
6.173,-0.026842
6.174,-0.026741
6.175,-0.026988
6.176,-0.027027
6.177,-0.026285
6.178,-0.024665
6.179,-0.022678
6.18,-0.021149
6.181,-0.020644
6.182,-0.020977
6.183,-0.021346
6.184,-0.021081
6.185,-0.020304
6.186,-0.019791
6.187,-0.020211
6.188,-0.021461
6.189,-0.022711
6.19,-0.023107
6.191,-0.022531
6.192,-0.0217
6.193,-0.021544
6.194,-0.022442
6.195,-0.023958
6.196,-0.025208
6.197,-0.025346
6.198,-0.023565
6.199,-0.018643
6.2,-0.009032
6.201,0.005676
6.202,0.023112
6.203,0.039032
6.204,0.050913
6.205,0.060323
6.206,0.07092
6.207,0.083939
6.208,0.095354
6.209,0.09738
6.21,0.084079
6.211,0.056742
6.212,0.023797
6.213,-0.004552
6.214,-0.021799
6.215,-0.026941
6.216,-0.022965
6.217,-0.014293
6.218,-0.004844
6.219,0.002818
6.22,0.007551
6.221,0.009455
6.222,0.009567
6.223,0.009282
6.224,0.009558
6.225,0.010429
6.226,0.011267
6.227,0.011454
6.228,0.010978
6.229,0.010542
6.23,0.011008
6.231,0.01259
6.232,0.01456
6.233,0.015733
6.234,0.015289
6.235,0.013305
6.236,0.010621
6.237,0.008179
6.238,0.006313
6.239,0.004612
6.24,0.002424
6.241,-0.000534
6.242,-0.003908
6.243,-0.006911
6.244,-0.008874
6.245,-0.009745
6.246,-0.010124
6.247,-0.010773
6.248,-0.011968
6.249,-0.013206
6.25,-0.013611
6.251,-0.012771
6.252,-0.011177
6.253,-0.009875
6.254,-0.00977
6.255,-0.011127
6.256,-0.013378
6.257,-0.015427
6.258,-0.016455
6.259,-0.016558
6.26,-0.016591
6.261,-0.017402
6.262,-0.019117
6.263,-0.021033
6.264,-0.0222
6.265,-0.022187
6.266,-0.021353
6.267,-0.020413
6.268,-0.019798
6.269,-0.019484
6.27,-0.019492
6.271,-0.020337
6.272,-0.022707
6.273,-0.026437
6.274,-0.029805
6.275,-0.030279
6.276,-0.026493
6.277,-0.019589
6.278,-0.012606
6.279,-0.008557
6.28,-0.008779
6.281,-0.012578
6.282,-0.018038
6.283,-0.023139
6.284,-0.026464
6.285,-0.027497
6.286,-0.026678
6.287,-0.025168
6.288,-0.024155
6.289,-0.023985
6.29,-0.023911
6.291,-0.022889
6.292,-0.020675
6.293,-0.018107
6.294,-0.016432
6.295,-0.016423
6.296,-0.017907
6.297,-0.019921
6.298,-0.02145
6.299,-0.02224
6.3,-0.022943
6.301,-0.02443
6.302,-0.026863
6.303,-0.029446
6.304,-0.031068
6.305,-0.03117
6.306,-0.030081
6.307,-0.028729
6.308,-0.028035
6.309,-0.02829
6.31,-0.028937
6.311,-0.028995
6.312,-0.027456
6.313,-0.0231
6.314,-0.014246
6.315,0.000166
6.316,0.018447
6.317,0.036053
6.318,0.049178
6.319,0.058382
6.32,0.067653
6.321,0.079691
6.322,0.092096
6.323,0.097654
6.324,0.089015
6.325,0.064719
6.326,0.031262
6.327,-0.000784
6.328,-0.022826
6.329,-0.031695
6.33,-0.029269
6.331,-0.020015
6.332,-0.00859
6.333,0.001513
6.334,0.008347
6.335,0.011463
6.336,0.011691
6.337,0.010604
6.338,0.009651
6.339,0.009399
6.34,0.009414
6.341,0.008894
6.342,0.007571
6.343,0.006065
6.344,0.005339
6.345,0.005901
6.346,0.007425
6.347,0.008914
6.348,0.009345
6.349,0.008444
6.35,0.006845
6.351,0.005477
6.352,0.004824
6.353,0.004611
6.354,0.004018
6.355,0.002296
6.356,-0.000622
6.357,-0.004041
6.358,-0.007075
6.359,-0.009303
6.36,-0.010991
6.361,-0.012778
6.362,-0.015041
6.363,-0.017448
6.364,-0.019079
6.365,-0.01905
6.366,-0.017234
6.367,-0.014554
6.368,-0.012425
6.369,-0.011758
6.37,-0.012452
6.371,-0.01367
6.372,-0.014508
6.373,-0.014574
6.374,-0.014146
6.375,-0.013898
6.376,-0.014384
6.377,-0.015616
6.378,-0.016964
6.379,-0.017636
6.38,-0.017418
6.381,-0.016858
6.382,-0.016642
6.383,-0.017095
6.384,-0.018359
6.385,-0.020683
6.386,-0.024234
6.387,-0.028631
6.388,-0.032575
6.389,-0.033923
6.39,-0.030808
6.391,-0.023343
6.392,-0.014099
6.393,-0.006677
6.394,-0.003623
6.395,-0.005216
6.396,-0.009769
6.397,-0.014866
6.398,-0.018531
6.399,-0.019913
6.4,-0.019442
6.401,-0.018356
6.402,-0.017858
6.403,-0.018441
6.404,-0.019692
6.405,-0.020662
6.406,-0.020652
6.407,-0.01983
6.408,-0.019069
6.409,-0.01921
6.41,-0.020391
6.411,-0.021907
6.412,-0.022738
6.413,-0.022372
6.414,-0.021248
6.415,-0.020402
6.416,-0.020629
6.417,-0.021839
6.418,-0.023087
6.419,-0.023301
6.42,-0.022193
6.421,-0.020534
6.422,-0.01952
6.423,-0.019854
6.424,-0.021285
6.425,-0.02281
6.426,-0.023248
6.427,-0.021547
6.428,-0.016455
6.429,-0.006495
6.43,0.00853
6.431,0.025953
6.432,0.041572
6.433,0.05339
6.434,0.063451
6.435,0.075321
6.436,0.08958
6.437,0.101383
6.438,0.102565
6.439,0.087545
6.44,0.058354
6.441,0.024064
6.442,-0.004723
6.443,-0.021431
6.444,-0.025285
6.445,-0.019643
6.446,-0.009382
6.447,0.001015
6.448,0.008511
6.449,0.011929
6.45,0.011866
6.451,0.010113
6.452,0.008648
6.453,0.00864
6.454,0.009946
6.455,0.011393
6.456,0.011758
6.457,0.010848
6.458,0.009701
6.459,0.009717
6.46,0.011446
6.461,0.014069
6.462,0.015937
6.463,0.015747
6.464,0.013475
6.465,0.010321
6.466,0.007669
6.467,0.005989
6.468,0.00464
6.469,0.002666
6.47,-0.000254
6.471,-0.00357
6.472,-0.006427
6.473,-0.008364
6.474,-0.009607
6.475,-0.010851
6.476,-0.012629
6.477,-0.014717
6.478,-0.016174
6.479,-0.016056
6.48,-0.014179
6.481,-0.011349
6.482,-0.008899
6.483,-0.007861
6.484,-0.00832
6.485,-0.009463
6.486,-0.010303
6.487,-0.010473
6.488,-0.010472
6.489,-0.011181
6.49,-0.013071
6.491,-0.015725
6.492,-0.017994
6.493,-0.018759
6.494,-0.017782
6.495,-0.015843
6.496,-0.014098
6.497,-0.013446
6.498,-0.01439
6.499,-0.017096
6.5,-0.021323
6.501,-0.026296
6.502,-0.030535
6.503,-0.031987
6.504,-0.029106
6.505,-0.022268
6.506,-0.013984
6.507,-0.007569
6.508,-0.005297
6.509,-0.007313
6.51,-0.012025
6.511,-0.017317
6.512,-0.021432
6.513,-0.023391
6.514,-0.023247
6.515,-0.021998
6.516,-0.020933
6.517,-0.020711
6.518,-0.020921
6.519,-0.02058
6.52,-0.019151
6.521,-0.017116
6.522,-0.015653
6.523,-0.015744
6.524,-0.017438
6.525,-0.019795
6.526,-0.021573
6.527,-0.022173
6.528,-0.022102
6.529,-0.022464
6.53,-0.023885
6.531,-0.025837
6.532,-0.026996
6.533,-0.026337
6.534,-0.024009
6.535,-0.021273
6.536,-0.019635
6.537,-0.019851
6.538,-0.021454
6.539,-0.023079
6.54,-0.023285
6.541,-0.02097
6.542,-0.015053
6.543,-0.004545
6.544,0.010128
6.545,0.026034
6.546,0.039393
6.547,0.04917
6.548,0.058343
6.549,0.070688
6.55,0.086036
6.551,0.098393
6.552,0.099015
6.553,0.082791
6.554,0.052784
6.555,0.018734
6.556,-0.008898
6.557,-0.024096
6.558,-0.026571
6.559,-0.02003
6.56,-0.00961
6.561,0.00021
6.562,0.006715
6.563,0.009157
6.564,0.008389
6.565,0.006186
6.566,0.004349
6.567,0.003848
6.568,0.00444
6.569,0.005104
6.57,0.005011
6.571,0.004243
6.572,0.003695
6.573,0.004332
6.574,0.006399
6.575,0.009141
6.576,0.011204
6.577,0.011495
6.578,0.009953
6.579,0.007565
6.58,0.005473
6.581,0.003949
6.582,0.002251
6.583,-0.000529
6.584,-0.004459
6.585,-0.008528
6.586,-0.011453
6.587,-0.012813
6.588,-0.01335
6.589,-0.014224
6.59,-0.016027
6.591,-0.018274
6.592,-0.019714
6.593,-0.019303
6.594,-0.017054
6.595,-0.014093
6.596,-0.01191
6.597,-0.011378
6.598,-0.012298
6.599,-0.013731
6.6,-0.014737
6.601,-0.014979
6.602,-0.014893
6.603,-0.015246
6.604,-0.016385
6.605,-0.017884
6.606,-0.018852
6.607,-0.018628
6.608,-0.017342
6.609,-0.01587
6.61,-0.015219
6.611,-0.015857
6.612,-0.017623
6.613,-0.020258
6.614,-0.023756
6.615,-0.027879
6.616,-0.031384
6.617,-0.032226
6.618,-0.029036
6.619,-0.022462
6.62,-0.015033
6.621,-0.009754
6.622,-0.008467
6.623,-0.011014
6.624,-0.015666
6.625,-0.020225
6.626,-0.023024
6.627,-0.023571
6.628,-0.022647
6.629,-0.021704
6.63,-0.021895
6.631,-0.023322
6.632,-0.02505
6.633,-0.025915
6.634,-0.025457
6.635,-0.024219
6.636,-0.023275
6.637,-0.02339
6.638,-0.024375
6.639,-0.025173
6.64,-0.024777
6.641,-0.02322
6.642,-0.021554
6.643,-0.020874
6.644,-0.021401
6.645,-0.022331
6.646,-0.022482
6.647,-0.021267
6.648,-0.019236
6.649,-0.017673
6.65,-0.01762
6.651,-0.019133
6.652,-0.021273
6.653,-0.022681
6.654,-0.022108
6.655,-0.018453
6.656,-0.010629
6.657,0.001785
6.658,0.017185
6.659,0.031969
6.66,0.043367
6.661,0.052457
6.662,0.063311
6.663,0.07843
6.664,0.09477
6.665,0.104058
6.666,0.097942
6.667,0.074479
6.668,0.040363
6.669,0.006877
6.67,-0.016649
6.671,-0.026696
6.672,-0.02518
6.673,-0.016766
6.674,-0.006246
6.675,0.002815
6.676,0.008432
6.677,0.01027
6.678,0.009507
6.679,0.008106
6.68,0.007682
6.681,0.008627
6.682,0.010103
6.683,0.010899
6.684,0.010477
6.685,0.009442
6.686,0.009149
6.687,0.010696
6.688,0.013943
6.689,0.017401
6.69,0.019198
6.691,0.018372
6.692,0.01546
6.693,0.011926
6.694,0.008976
6.695,0.006729
6.696,0.004366
6.697,0.001114
6.698,-0.00284
6.699,-0.006442
6.7,-0.008769
6.701,-0.009822
6.702,-0.01045
6.703,-0.011573
6.704,-0.01332
6.705,-0.01483
6.706,-0.01493
6.707,-0.013118
6.708,-0.01005
6.709,-0.007149
6.71,-0.005682
6.711,-0.005997
6.712,-0.007404
6.713,-0.008764
6.714,-0.009386
6.715,-0.009539
6.716,-0.010171
6.717,-0.012042
6.718,-0.014945
6.719,-0.017708
6.72,-0.01907
6.721,-0.018667
6.722,-0.017251
6.723,-0.016032
6.724,-0.015816
6.725,-0.016598
6.726,-0.017895
6.727,-0.019414
6.728,-0.02131
6.729,-0.023542
6.73,-0.0251
6.731,-0.024356
6.732,-0.020467
6.733,-0.014428
6.734,-0.008801
6.735,-0.006296
6.736,-0.008171
6.737,-0.013562
6.738,-0.02013
6.739,-0.025362
6.74,-0.027654
6.741,-0.026841
6.742,-0.024129
6.743,-0.02131
6.744,-0.01951
6.745,-0.018481
6.746,-0.017129
6.747,-0.014731
6.748,-0.011678
6.749,-0.009253
6.75,-0.008741
6.751,-0.010554
6.752,-0.01395
6.753,-0.017506
6.754,-0.020094
6.755,-0.021684
6.756,-0.023209
6.757,-0.025491
6.758,-0.028236
6.759,-0.030128
6.76,-0.029893
6.761,-0.027344
6.762,-0.023643
6.763,-0.020599
6.764,-0.019486
6.765,-0.020179
6.766,-0.021284
6.767,-0.02109
6.768,-0.018361
6.769,-0.012269
6.77,-0.002096
6.771,0.011961
6.772,0.027438
6.773,0.040497
6.774,0.049493
6.775,0.057106
6.776,0.067751
6.777,0.082513
6.778,0.096361
6.779,0.100312
6.78,0.087706
6.781,0.059873
6.782,0.025921
6.783,-0.003066
6.784,-0.020003
6.785,-0.023865
6.786,-0.018114
6.787,-0.007816
6.788,0.002606
6.789,0.010264
6.79,0.013849
6.791,0.013584
6.792,0.011036
6.793,0.008278
6.794,0.006725
6.795,0.006472
6.796,0.006647
6.797,0.006488
6.798,0.006231
6.799,0.006983
6.8,0.009681
6.801,0.014128
6.802,0.018943
6.803,0.022463
6.804,0.023793
6.805,0.02316
6.806,0.021482
6.807,0.019705
6.808,0.018207
6.809,0.016468
6.81,0.01342
6.811,0.008412
6.812,0.001969
6.813,-0.004456
6.814,-0.009554
6.815,-0.013093
6.816,-0.01583
6.817,-0.018538
6.818,-0.021082
6.819,-0.02238
6.82,-0.021277
6.821,-0.017625
6.822,-0.012556
6.823,-0.007774
6.824,-0.004551
6.825,-0.003121
6.826,-0.002805
6.827,-0.002726
6.828,-0.002616
6.829,-0.003119
6.83,-0.005234
6.831,-0.009273
6.832,-0.014329
6.833,-0.018802
6.834,-0.021495
6.835,-0.022298
6.836,-0.022009
6.837,-0.021636
6.838,-0.021739
6.839,-0.022288
6.84,-0.023099
6.841,-0.024241
6.842,-0.025789
6.843,-0.027141
6.844,-0.026701
6.845,-0.022762
6.846,-0.015155
6.847,-0.005998
6.848,0.001346
6.849,0.004239
6.85,0.002081
6.851,-0.00376
6.852,-0.010957
6.853,-0.017292
6.854,-0.021395
6.855,-0.023087
6.856,-0.023212
6.857,-0.022903
6.858,-0.022704
6.859,-0.022217
6.86,-0.020633
6.861,-0.017634
6.862,-0.013939
6.863,-0.01104
6.864,-0.010194
6.865,-0.01144
6.866,-0.01355
6.867,-0.015038
6.868,-0.015335
6.869,-0.015159
6.87,-0.015845
6.871,-0.018207
6.872,-0.021806
6.873,-0.025205
6.874,-0.027044
6.875,-0.027036
6.876,-0.026108
6.877,-0.025619
6.878,-0.026266
6.879,-0.027535
6.88,-0.02811
6.881,-0.02679
6.882,-0.022894
6.883,-0.015802
6.884,-0.004654
6.885,0.010488
6.886,0.027095
6.887,0.041319
6.888,0.051787
6.889,0.061349
6.89,0.073863
6.891,0.089122
6.892,0.100921
6.893,0.100284
6.894,0.081968
6.895,0.049175
6.896,0.012161
6.897,-0.017804
6.898,-0.03394
6.899,-0.035748
6.9,-0.027362
6.901,-0.014584
6.902,-0.002508
6.903,0.00573
6.904,0.009347
6.905,0.00951
6.906,0.008281
6.907,0.007415
6.908,0.007602
6.909,0.008368
6.91,0.00853
6.911,0.007159
6.912,0.004618
6.913,0.002615
6.914,0.002863
6.915,0.005518
6.916,0.009007
6.917,0.011367
6.918,0.011777
6.919,0.010949
6.92,0.010113
6.921,0.009604
6.922,0.008584
6.923,0.006141
6.924,0.002562
6.925,-0.000648
6.926,-0.002293
6.927,-0.002825
6.928,-0.003724
6.929,-0.005803
6.93,-0.008529
6.931,-0.01071
6.932,-0.011521
6.933,-0.011192
6.934,-0.010859
6.935,-0.01148
6.936,-0.012757
6.937,-0.013285
6.938,-0.011932
6.939,-0.008996
6.94,-0.005764
6.941,-0.003247
6.942,-0.002046
6.943,-0.002797
6.944,-0.00551
6.945,-0.008914
6.946,-0.011634
6.947,-0.013347
6.948,-0.014041
6.949,-0.013391
6.95,-0.01168
6.951,-0.010255
6.952,-0.010359
6.953,-0.011971
6.954,-0.014042
6.955,-0.015493
6.956,-0.01545
6.957,-0.012443
6.958,-0.004783
6.959,0.007061
6.96,0.019349
6.961,0.026984
6.962,0.026293
6.963,0.017222
6.964,0.004274
6.965,-0.005677
6.966,-0.008221
6.967,-0.004494
6.968,0.00057
6.969,0.002803
6.97,0.002062
6.971,0.001447
6.972,0.003232
6.973,0.006346
6.974,0.008535
6.975,0.009599
6.976,0.011093
6.977,0.013544
6.978,0.015597
6.979,0.016565
6.98,0.018626
6.981,0.02465
6.982,0.033838
6.983,0.041511
6.984,0.043971
6.985,0.042102
6.986,0.040128
6.987,0.042123
6.988,0.048746
6.989,0.055797
6.99,0.057127
6.991,0.050797
6.992,0.042111
6.993,0.039149
6.994,0.045443
6.995,0.058503
6.996,0.073962
6.997,0.087847
6.998,0.0958
6.999,0.09412
7.0,0.084166
7.001,0.075448
7.002,0.081145
7.003,0.10731
7.004,0.145488
7.005,0.176085
7.006,0.180883
7.007,0.155618
7.008,0.11226
7.009,0.069571
7.01,0.041363
7.011,0.031563
7.012,0.036461
7.013,0.049312
7.014,0.063752
7.015,0.075439
7.016,0.082499
7.017,0.085284
7.018,0.085693
7.019,0.085982
7.02,0.087304
7.021,0.089001
7.022,0.08941
7.023,0.087416
7.024,0.083399
7.025,0.07913
7.026,0.07679
7.027,0.077546
7.028,0.080581
7.029,0.083622
7.03,0.08466
7.031,0.08324
7.032,0.080245
7.033,0.076799
7.034,0.073539
7.035,0.070618
7.036,0.068072
7.037,0.066124
7.038,0.065182
7.039,0.065459
7.04,0.066469
7.041,0.066928
7.042,0.065403
7.043,0.061327
7.044,0.055556
7.045,0.050036
7.046,0.04678
7.047,0.046701
7.048,0.049068
7.049,0.052043
7.05,0.053907
7.051,0.054033
7.052,0.052993
7.053,0.051864
7.054,0.051343
7.055,0.05132
7.056,0.051196
7.057,0.050589
7.058,0.049699
7.059,0.049047
7.06,0.048864
7.061,0.048719
7.062,0.047801
7.063,0.045629
7.064,0.042588
7.065,0.039815
7.066,0.038301
7.067,0.037957
7.068,0.037873
7.069,0.037675
7.07,0.038181
7.071,0.040371
7.072,0.043945
7.073,0.047075
7.074,0.047451
7.075,0.043816
7.076,0.036888
7.077,0.02893
7.078,0.022434
7.079,0.018933
7.08,0.018412
7.081,0.019399
7.082,0.019815
7.083,0.018223
7.084,0.014655
7.085,0.010457
7.086,0.007286
7.087,0.005956
7.088,0.005999
7.089,0.006254
7.09,0.005894
7.091,0.004959
7.092,0.004118
7.093,0.004001
7.094,0.004603
7.095,0.005287
7.096,0.00541
7.097,0.004988
7.098,0.004795
7.099,0.005773
7.1,0.008102
7.101,0.010695
7.102,0.011743
7.103,0.009955
7.104,0.005424
7.105,-0.000385
7.106,-0.005292
7.107,-0.007168
7.108,-0.00424
7.109,0.004725
7.11,0.019345
7.111,0.036252
7.112,0.050216
7.113,0.058701
7.114,0.065478
7.115,0.077876
7.116,0.098925
7.117,0.122075
7.118,0.134223
7.119,0.125096
7.12,0.09504
7.121,0.054757
7.122,0.01803
7.123,-0.005937
7.124,-0.015286
7.125,-0.013516
7.126,-0.006028
7.127,0.00238
7.128,0.008616
7.129,0.011523
7.13,0.011615
7.131,0.010401
7.132,0.009466
7.133,0.009675
7.134,0.010906
7.135,0.012403
7.136,0.013506
7.137,0.014213
7.138,0.015185
7.139,0.017103
7.14,0.019843
7.141,0.022317
7.142,0.023202
7.143,0.021826
7.144,0.018544
7.145,0.014428
7.146,0.010586
7.147,0.007598
7.148,0.00543
7.149,0.003685
7.15,0.001868
7.151,-0.000307
7.152,-0.002731
7.153,-0.005113
7.154,-0.007364
7.155,-0.009549
7.156,-0.011463
7.157,-0.012469
7.158,-0.011901
7.159,-0.009674
7.16,-0.006498
7.161,-0.003554
7.162,-0.001902
7.163,-0.002003
7.164,-0.003562
7.165,-0.005804
7.166,-0.008007
7.167,-0.009881
7.168,-0.011511
7.169,-0.013036
7.17,-0.014482
7.171,-0.015813
7.172,-0.016962
7.173,-0.017832
7.174,-0.01834
7.175,-0.018464
7.176,-0.018202
7.177,-0.017457
7.178,-0.015989
7.179,-0.013686
7.18,-0.010947
7.181,-0.008774
7.182,-0.008474
7.183,-0.011108
7.184,-0.016742
7.185,-0.02372
7.186,-0.028831
7.187,-0.029167
7.188,-0.024438
7.189,-0.017408
7.19,-0.011984
7.191,-0.010717
7.192,-0.013582
7.193,-0.018663
7.194,-0.023773
7.195,-0.027452
7.196,-0.028993
7.197,-0.028258
7.198,-0.02572
7.199,-0.022407
7.2,-0.019449
7.201,-0.017541
7.202,-0.016796
7.203,-0.017009
7.204,-0.017966
7.205,-0.019536
7.206,-0.021641
7.207,-0.024134
7.208,-0.026728
7.209,-0.029044
7.21,-0.03078
7.211,-0.031885
7.212,-0.032518
7.213,-0.032803
7.214,-0.032669
7.215,-0.031965
7.216,-0.030695
7.217,-0.029037
7.218,-0.027207
7.219,-0.025442
7.22,-0.024051
7.221,-0.023264
7.222,-0.022986
7.223,-0.022646
7.224,-0.021001
7.225,-0.016044
7.226,-0.00602
7.227,0.008343
7.228,0.023026
7.229,0.033775
7.23,0.040593
7.231,0.048262
7.232,0.061462
7.233,0.078991
7.234,0.092541
7.235,0.091842
7.236,0.07257
7.237,0.040231
7.238,0.006626
7.239,-0.017572
7.24,-0.028068
7.241,-0.027001
7.242,-0.019439
7.243,-0.010055
7.244,-0.001871
7.245,0.003599
7.246,0.005987
7.247,0.005855
7.248,0.004336
7.249,0.002548
7.25,0.001076
7.251,-0.000118
7.252,-0.001292
7.253,-0.002426
7.254,-0.003078
7.255,-0.002639
7.256,-0.000743
7.257,0.00244
7.258,0.006171
7.259,0.009342
7.26,0.010914
7.261,0.010442
7.262,0.008305
7.263,0.005332
7.264,0.002151
7.265,-0.001155
7.266,-0.004841
7.267,-0.008993
7.268,-0.013203
7.269,-0.016785
7.27,-0.019365
7.271,-0.021171
7.272,-0.022672
7.273,-0.024077
7.274,-0.025228
7.275,-0.0258
7.276,-0.025433
7.277,-0.023867
7.278,-0.021201
7.279,-0.018098
7.28,-0.015572
7.281,-0.014355
7.282,-0.014414
7.283,-0.015128
7.284,-0.015913
7.285,-0.016684
7.286,-0.017769
7.287,-0.01949
7.288,-0.021785
7.289,-0.024141
7.29,-0.025854
7.291,-0.026456
7.292,-0.025997
7.293,-0.024925
7.294,-0.023698
7.295,-0.022631
7.296,-0.022096
7.297,-0.02266
7.298,-0.024796
7.299,-0.028307
7.3,-0.031832
7.301,-0.033092
7.302,-0.030263
7.303,-0.023578
7.304,-0.015603
7.305,-0.009765
7.306,-0.008281
7.307,-0.011092
7.308,-0.016439
7.309,-0.022197
7.31,-0.026843
7.311,-0.029723
7.312,-0.030899
7.313,-0.030889
7.314,-0.030369
7.315,-0.02978
7.316,-0.029084
7.317,-0.027943
7.318,-0.026141
7.319,-0.023897
7.32,-0.02185
7.321,-0.02066
7.322,-0.02052
7.323,-0.02104
7.324,-0.021668
7.325,-0.022205
7.326,-0.022922
7.327,-0.024232
7.328,-0.026207
7.329,-0.028355
7.33,-0.029928
7.331,-0.030506
7.332,-0.030344
7.333,-0.030158
7.334,-0.030499
7.335,-0.031306
7.336,-0.031969
7.337,-0.031734
7.338,-0.029943
7.339,-0.025786
7.34,-0.017957
7.341,-0.005238
7.342,0.011697
7.343,0.029223
7.344,0.042971
7.345,0.051961
7.346,0.059806
7.347,0.070895
7.348,0.08511
7.349,0.095995
7.35,0.094404
7.351,0.075497
7.352,0.04327
7.353,0.008328
7.354,-0.018747
7.355,-0.032592
7.356,-0.033888
7.357,-0.026971
7.358,-0.016867
7.359,-0.007421
7.36,-0.000731
7.361,0.002695
7.362,0.00357
7.363,0.003251
7.364,0.002967
7.365,0.003253
7.366,0.003918
7.367,0.00447
7.368,0.004633
7.369,0.004594
7.37,0.004864
7.371,0.005887
7.372,0.007652
7.373,0.009595
7.374,0.010892
7.375,0.010893
7.376,0.009402
7.377,0.006798
7.378,0.003894
7.379,0.001388
7.38,-0.000664
7.381,-0.00277
7.382,-0.005347
7.383,-0.008194
7.384,-0.010649
7.385,-0.012258
7.386,-0.013221
7.387,-0.014221
7.388,-0.015819
7.389,-0.017964
7.39,-0.020032
7.391,-0.021297
7.392,-0.021438
7.393,-0.020718
7.394,-0.019762
7.395,-0.019181
7.396,-0.019254
7.397,-0.019801
7.398,-0.020336
7.399,-0.020473
7.4,-0.020314
7.401,-0.020429
7.402,-0.02137
7.403,-0.023082
7.404,-0.024909
7.405,-0.026196
7.406,-0.026729
7.407,-0.026644
7.408,-0.026129
7.409,-0.025305
7.41,-0.024455
7.411,-0.024304
7.412,-0.025771
7.413,-0.029288
7.414,-0.034245
7.415,-0.038873
7.416,-0.040698
7.417,-0.037865
7.418,-0.030705
7.419,-0.021977
7.42,-0.015275
7.421,-0.012896
7.422,-0.014778
7.423,-0.019073
7.424,-0.023543
7.425,-0.026652
7.426,-0.027935
7.427,-0.027849
7.428,-0.027281
7.429,-0.026933
7.43,-0.026924
7.431,-0.026862
7.432,-0.026248
7.433,-0.024953
7.434,-0.023468
7.435,-0.022706
7.436,-0.023405
7.437,-0.025492
7.438,-0.028055
7.439,-0.030046
7.44,-0.031102
7.441,-0.031718
7.442,-0.032639
7.443,-0.034114
7.444,-0.035696
7.445,-0.03656
7.446,-0.036053
7.447,-0.03414
7.448,-0.031484
7.449,-0.029076
7.45,-0.027655
7.451,-0.027277
7.452,-0.027323
7.453,-0.026757
7.454,-0.024226
7.455,-0.018003
7.456,-0.006616
7.457,0.009393
7.458,0.026453
7.459,0.040185
7.46,0.049386
7.461,0.057073
7.462,0.067085
7.463,0.079553
7.464,0.089079
7.465,0.087549
7.466,0.070335
7.467,0.040715
7.468,0.008215
7.469,-0.017266
7.47,-0.030436
7.471,-0.031678
7.472,-0.024943
7.473,-0.015002
7.474,-0.005673
7.475,0.000849
7.476,0.003972
7.477,0.00434
7.478,0.003228
7.479,0.00181
7.48,0.00069
7.481,-7.2e-05
7.482,-0.000648
7.483,-0.001154
7.484,-0.001468
7.485,-0.001203
7.486,5.7e-05
7.487,0.002297
7.488,0.004862
7.489,0.006804
7.49,0.00743
7.491,0.006643
7.492,0.004949
7.493,0.003078
7.494,0.001381
7.495,-0.000503
7.496,-0.003351
7.497,-0.007594
7.498,-0.012763
7.499,-0.017684
7.5,-0.021288
7.501,-0.023315
7.502,-0.024326
7.503,-0.025097
7.504,-0.025968
7.505,-0.026589
7.506,-0.026242
7.507,-0.024469
7.508,-0.021497
7.509,-0.018167
7.51,-0.015525
7.511,-0.014273
7.512,-0.014383
7.513,-0.015204
7.514,-0.016083
7.515,-0.016924
7.516,-0.018173
7.517,-0.020294
7.518,-0.023206
7.519,-0.026215
7.52,-0.028488
7.521,-0.02966
7.522,-0.030001
7.523,-0.030076
7.524,-0.030309
7.525,-0.030863
7.526,-0.031862
7.527,-0.033527
7.528,-0.035954
7.529,-0.038621
7.53,-0.040061
7.531,-0.038387
7.532,-0.032781
7.533,-0.024655
7.534,-0.017109
7.535,-0.013048
7.536,-0.013521
7.537,-0.017532
7.538,-0.023093
7.539,-0.028378
7.54,-0.032276
7.541,-0.034414
7.542,-0.034967
7.543,-0.034499
7.544,-0.033702
7.545,-0.03293
7.546,-0.031995
7.547,-0.030546
7.548,-0.028586
7.549,-0.026615
7.55,-0.025332
7.551,-0.02519
7.552,-0.026077
7.553,-0.027342
7.554,-0.028259
7.555,-0.028643
7.556,-0.029076
7.557,-0.030366
7.558,-0.032646
7.559,-0.035071
7.56,-0.036514
7.561,-0.036516
7.562,-0.03551
7.563,-0.034355
7.564,-0.033792
7.565,-0.034045
7.566,-0.034681
7.567,-0.034829
7.568,-0.033409
7.569,-0.029037
7.57,-0.020014
7.571,-0.005317
7.572,0.013566
7.573,0.032283
7.574,0.046514
7.575,0.055788
7.576,0.063775
7.577,0.074262
7.578,0.086479
7.579,0.093908
7.58,0.088321
7.581,0.066489
7.582,0.03364
7.583,0.000451
7.584,-0.023379
7.585,-0.033595
7.586,-0.031629
7.587,-0.022104
7.588,-0.010024
7.589,0.000878
7.59,0.008516
7.591,0.012303
7.592,0.012946
7.593,0.011992
7.594,0.010967
7.595,0.010561
7.596,0.01042
7.597,0.009772
7.598,0.008355
7.599,0.006741
7.6,0.005844
7.601,0.006278
7.602,0.007965
7.603,0.010074
7.604,0.011404
7.605,0.011179
7.606,0.009576
7.607,0.007485
7.608,0.005775
7.609,0.004639
7.61,0.003497
7.611,0.001511
7.612,-0.001648
7.613,-0.005387
7.614,-0.008601
7.615,-0.010587
7.616,-0.01157
7.617,-0.01236
7.618,-0.013535
7.619,-0.014949
7.62,-0.015897
7.621,-0.015677
7.622,-0.014089
7.623,-0.011614
7.624,-0.009233
7.625,-0.007938
7.626,-0.008187
7.627,-0.009694
7.628,-0.011695
7.629,-0.013479
7.63,-0.014815
7.631,-0.01595
7.632,-0.017207
7.633,-0.018546
7.634,-0.019552
7.635,-0.019849
7.636,-0.019481
7.637,-0.018835
7.638,-0.018252
7.639,-0.017876
7.64,-0.017891
7.641,-0.018802
7.642,-0.021289
7.643,-0.025507
7.644,-0.030341
7.645,-0.033384
7.646,-0.03215
7.647,-0.025975
7.648,-0.016914
7.649,-0.008703
7.65,-0.004587
7.651,-0.005641
7.652,-0.010597
7.653,-0.017021
7.654,-0.022693
7.655,-0.026309
7.656,-0.027568
7.657,-0.026988
7.658,-0.025543
7.659,-0.024124
7.66,-0.023075
7.661,-0.022128
7.662,-0.020781
7.663,-0.018866
7.664,-0.016847
7.665,-0.015585
7.666,-0.015721
7.667,-0.017146
7.668,-0.019043
7.669,-0.020572
7.67,-0.02158
7.671,-0.022659
7.672,-0.024473
7.673,-0.026964
7.674,-0.029205
7.675,-0.030138
7.676,-0.029575
7.677,-0.028401
7.678,-0.027763
7.679,-0.028143
7.68,-0.029132
7.681,-0.02979
7.682,-0.029081
7.683,-0.02609
7.684,-0.019868
7.685,-0.009297
7.686,0.005975
7.687,0.023834
7.688,0.039978
7.689,0.05139
7.69,0.059406
7.691,0.068205
7.692,0.079974
7.693,0.091453
7.694,0.094904
7.695,0.083537
7.696,0.057489
7.697,0.024651
7.698,-0.004374
7.699,-0.02222
7.7,-0.027296
7.701,-0.022554
7.702,-0.012687
7.703,-0.001931
7.704,0.00682
7.705,0.012151
7.706,0.014019
7.707,0.013493
7.708,0.012181
7.709,0.011331
7.71,0.011126
7.711,0.010827
7.712,0.009653
7.713,0.007646
7.714,0.005791
7.715,0.005303
7.716,0.006715
7.717,0.009486
7.718,0.012323
7.719,0.013965
7.72,0.013871
7.721,0.012431
7.722,0.010581
7.723,0.00904
7.724,0.007738
7.725,0.005974
7.726,0.003137
7.727,-0.000696
7.728,-0.004754
7.729,-0.008083
7.73,-0.010253
7.731,-0.011674
7.732,-0.01311
7.733,-0.014876
7.734,-0.01658
7.735,-0.017541
7.736,-0.017369
7.737,-0.016217
7.738,-0.0146
7.739,-0.013087
7.74,-0.012036
7.741,-0.011425
7.742,-0.010923
7.743,-0.010298
7.744,-0.009759
7.745,-0.009809
7.746,-0.010761
7.747,-0.01248
7.748,-0.014438
7.749,-0.015927
7.75,-0.016445
7.751,-0.016112
7.752,-0.015609
7.753,-0.01559
7.754,-0.016238
7.755,-0.017507
7.756,-0.019654
7.757,-0.023149
7.758,-0.027776
7.759,-0.031904
7.76,-0.033029
7.761,-0.029519
7.762,-0.022059
7.763,-0.01341
7.764,-0.006771
7.765,-0.004065
7.766,-0.005271
7.767,-0.008986
7.768,-0.013449
7.769,-0.017279
7.77,-0.019795
7.771,-0.02108
7.772,-0.021808
7.773,-0.02272
7.774,-0.023993
7.775,-0.025068
7.776,-0.025165
7.777,-0.024041
7.778,-0.022304
7.779,-0.020984
7.78,-0.020752
7.781,-0.021388
7.782,-0.022026
7.783,-0.021954
7.784,-0.021233
7.785,-0.020625
7.786,-0.020954
7.787,-0.022414
7.788,-0.024344
