time_s	mv
0.0	0.001369
0.001	0.009498
0.002	0.014683
0.003	0.016273
0.004	0.01566
0.005	0.014277
0.006	0.012408
0.007	0.009876
0.008	0.007164
0.009	0.005631
0.01	0.006721
0.011	0.010878
0.012	0.017194
0.013	0.023662
0.014	0.027345
0.015	0.025436
0.016	0.017886
0.017	0.008803
0.018	0.003566
0.019	0.004548
0.02	0.010277
0.021	0.017278
0.022	0.022189
0.023	0.023462
0.024	0.021648
0.025	0.018702
0.026	0.018123
0.027	0.025351
0.028	0.045573
0.029	0.077778
0.03	0.10947
0.031	0.120784
0.032	0.100441
0.033	0.059587
0.034	0.025495
0.035	0.019003
0.036	0.039527
0.037	0.070543
0.038	0.094674
0.039	0.103227
0.04	0.096669
0.041	0.080528
0.042	0.061493
0.043	0.045205
0.044	0.034741
0.045	0.029938
0.046	0.028301
0.047	0.026824
0.048	0.023606
0.049	0.018687
0.05	0.013824
0.051	0.011436
0.052	0.013028
0.053	0.017516
0.054	0.021031
0.055	0.019403
0.056	0.012031
0.057	0.003364
0.058	-0.000753
0.059	0.00162
0.06	0.007526
0.061	0.012569
0.062	0.014559
0.063	0.014233
0.064	0.013383
0.065	0.013167
0.066	0.013923
0.067	0.015467
0.068	0.017172
0.069	0.018197
0.07	0.01814
0.071	0.01752
0.072	0.017229
0.073	0.017412
0.074	0.017131
0.075	0.015134
0.076	0.011368
0.077	0.007879
0.078	0.007102
0.079	0.009181
0.08	0.012089
0.081	0.013788
0.082	0.013487
0.083	0.011639
0.084	0.009604
0.085	0.008965
0.086	0.01016
0.087	0.011697
0.088	0.011362
0.089	0.008314
0.09	0.004048
0.091	0.001855
0.092	0.005183
0.093	0.015365
0.094	0.029899
0.095	0.043039
0.096	0.0496
0.097	0.04894
0.098	0.04432
0.099	0.038911
0.1	0.033831
0.101	0.028912
0.102	0.023605
0.103	0.017489
0.104	0.010848
0.105	0.004654
0.106	-0.000266
0.107	-0.003768
0.108	-0.006168
0.109	-0.00776
0.11	-0.008313
0.111	-0.006923
0.112	-0.002833
0.113	0.003121
0.114	0.008052
0.115	0.008706
0.116	0.004519
0.117	-0.001145
0.118	-0.004027
0.119	-0.002855
0.12	0.000691
0.121	0.004253
0.122	0.005895
0.123	0.004808
0.124	0.002301
0.125	0.001167
0.126	0.00314
0.127	0.007118
0.128	0.009897
0.129	0.008633
0.13	0.00317
0.131	-0.003637
0.132	-0.00772
0.133	-0.005433
0.134	0.006282
0.135	0.029568
0.136	0.063043
0.137	0.097642
0.138	0.11662
0.139	0.106303
0.14	0.071287
0.141	0.034959
0.142	0.020662
0.143	0.033479
0.144	0.060147
0.145	0.082714
0.146	0.090907
0.147	0.084745
0.148	0.069803
0.149	0.05203
0.15	0.035793
0.151	0.023911
0.152	0.017527
0.153	0.015617
0.154	0.014964
0.155	0.011563
0.156	0.0038
0.157	-0.005271
0.158	-0.010339
0.159	-0.008666
0.16	-0.00176
0.161	0.006246
0.162	0.011053
0.163	0.010713
0.164	0.006596
0.165	0.001887
0.166	-0.000686
0.167	-0.000315
0.168	0.001672
0.169	0.003164
0.17	0.003247
0.171	0.002782
0.172	0.003245
0.173	0.005306
0.174	0.008003
0.175	0.008958
0.176	0.006405
0.177	0.001506
0.178	-0.002506
0.179	-0.003446
0.18	-0.001507
0.181	0.001481
0.182	0.003401
0.183	0.00335
0.184	0.002234
0.185	0.001861
0.186	0.003305
0.187	0.00576
0.188	0.007111
0.189	0.005909
0.19	0.00253
0.191	-0.001498
0.192	-0.00456
0.193	-0.005629
0.194	-0.005095
0.195	-0.005065
0.196	-0.00741
0.197	-0.011167
0.198	-0.013143
0.199	-0.010894
0.2	-0.003984
0.201	0.006456
0.202	0.017961
0.203	0.02704
0.204	0.030479
0.205	0.02735
0.206	0.019856
0.207	0.011764
0.208	0.005895
0.209	0.002791
0.21	0.001056
0.211	-0.001012
0.212	-0.003453
0.213	-0.004632
0.214	-0.003606
0.215	-0.001754
0.216	-0.001218
0.217	-0.002203
0.218	-0.003161
0.219	-0.003323
0.22	-0.003574
0.221	-0.005238
0.222	-0.008959
0.223	-0.01426
0.224	-0.0194
0.225	-0.021811
0.226	-0.019627
0.227	-0.013431
0.228	-0.006281
0.229	-0.001797
0.23	-0.002069
0.231	-0.006277
0.232	-0.010771
0.233	-0.011656
0.234	-0.00822
0.235	-0.003617
0.236	-0.001712
0.237	-0.003417
0.238	-0.006834
0.239	-0.009963
0.24	-0.011109
0.241	-0.006968
0.242	0.007516
0.243	0.034838
0.244	0.068218
0.245	0.09039
0.246	0.084794
0.247	0.052541
0.248	0.01619
0.249	0.002099
0.25	0.018666
0.251	0.052702
0.252	0.08369
0.253	0.098476
0.254	0.095035
0.255	0.077889
0.256	0.053451
0.257	0.028636
0.258	0.009393
0.259	-0.001799
0.26	-0.006177
0.261	-0.006684
0.262	-0.006256
0.263	-0.006845
0.264	-0.008685
0.265	-0.01036
0.266	-0.010222
0.267	-0.008169
0.268	-0.006093
0.269	-0.006526
0.27	-0.010389
0.271	-0.015662
0.272	-0.018597
0.273	-0.016589
0.274	-0.01011
0.275	-0.002387
0.276	0.003148
0.277	0.005625
0.278	0.006405
0.279	0.006552
0.28	0.006019
0.281	0.004447
0.282	0.001562
0.283	-0.002431
0.284	-0.006142
0.285	-0.007242
0.286	-0.004091
0.287	0.002545
0.288	0.009155
0.289	0.011299
0.29	0.006857
0.291	-0.00213
0.292	-0.010962
0.293	-0.015493
0.294	-0.014747
0.295	-0.011687
0.296	-0.010718
0.297	-0.013374
0.298	-0.017356
0.299	-0.019553
0.3	-0.018644
0.301	-0.015669
0.302	-0.013114
0.303	-0.012856
0.304	-0.01467
0.305	-0.016359
0.306	-0.01487
0.307	-0.007828
0.308	0.004787
0.309	0.019861
0.31	0.032434
0.311	0.0385
0.312	0.037349
0.313	0.03167
0.314	0.025054
0.315	0.019138
0.316	0.01381
0.317	0.009696
0.318	0.008247
0.319	0.009477
0.32	0.011736
0.321	0.013188
0.322	0.0125
0.323	0.009369
0.324	0.005192
0.325	0.0024
0.326	0.002415
0.327	0.004205
0.328	0.004951
0.329	0.002359
0.33	-0.003412
0.331	-0.009786
0.332	-0.013215
0.333	-0.011013
0.334	-0.00335
0.335	0.00598
0.336	0.012069
0.337	0.012822
0.338	0.009802
0.339	0.006015
0.34	0.004129
0.341	0.005317
0.342	0.008396
0.343	0.010599
0.344	0.009384
0.345	0.003747
0.346	-0.005043
0.347	-0.013194
0.348	-0.01494
0.349	-0.004053
0.35	0.02294
0.351	0.061576
0.352	0.096396
0.353	0.10739
0.354	0.085941
0.355	0.0457
0.356	0.014067
0.357	0.010822
0.358	0.03438
0.359	0.066744
0.36	0.089318
0.361	0.093913
0.362	0.082857
0.363	0.063416
0.364	0.04256
0.365	0.024617
0.366	0.011543
0.367	0.003726
0.368	-2.7e-05
0.369	-0.002366
0.37	-0.005916
0.371	-0.011197
0.372	-0.015923
0.373	-0.016738
0.374	-0.012227
0.375	-0.00456
0.376	0.00198
0.377	0.004303
0.378	0.002206
0.379	-0.002437
0.38	-0.007033
0.381	-0.0097
0.382	-0.01041
0.383	-0.010706
0.384	-0.012232
0.385	-0.015176
0.386	-0.017921
0.387	-0.018471
0.388	-0.016413
0.389	-0.013496
0.39	-0.012202
0.391	-0.013337
0.392	-0.014908
0.393	-0.013922
0.394	-0.009666
0.395	-0.00504
0.396	-0.003957
0.397	-0.0072
0.398	-0.012014
0.399	-0.015414
0.4	-0.016148
0.401	-0.014177
0.402	-0.010201
0.403	-0.005892
0.404	-0.003628
0.405	-0.004836
0.406	-0.008349
0.407	-0.011023
0.408	-0.010449
0.409	-0.00715
0.41	-0.004041
0.411	-0.0035
0.412	-0.004907
0.413	-0.004963
0.414	-0.000366
0.415	0.009278
0.416	0.021163
0.417	0.031711
0.418	0.038001
0.419	0.037777
0.42	0.030886
0.421	0.02037
0.422	0.010322
0.423	0.002826
0.424	-0.002365
0.425	-0.005753
0.426	-0.006887
0.427	-0.00539
0.428	-0.002297
0.429	0.000131
0.43	-8.8e-05
0.431	-0.003001
0.432	-0.006421
0.433	-0.007521
0.434	-0.005154
0.435	-0.001175
0.436	0.00101
0.437	-0.000269
0.438	-0.003959
0.439	-0.007958
0.44	-0.01002
0.441	-0.008311
0.442	-0.003193
0.443	0.002031
0.444	0.00351
0.445	0.000167
0.446	-0.005365
0.447	-0.008718
0.448	-0.007053
0.449	-0.001258
0.45	0.004873
0.451	0.007842
0.452	0.006838
0.453	0.003449
0.454	-6.6e-05
0.455	-0.001465
0.456	0.002853
0.457	0.018207
0.458	0.046212
0.459	0.077249
0.46	0.092488
0.461	0.078749
0.462	0.043162
0.463	0.010708
0.464	0.004405
0.465	0.027693
0.466	0.065131
0.467	0.096724
0.468	0.110461
0.469	0.10507
0.47	0.086248
0.471	0.062067
0.472	0.039766
0.473	0.024077
0.474	0.016358
0.475	0.014248
0.476	0.01319
0.477	0.009698
0.478	0.003097
0.479	-0.005063
0.48	-0.011774
0.481	-0.014103
0.482	-0.011827
0.483	-0.008016
0.484	-0.006502
0.485	-0.008832
0.486	-0.013125
0.487	-0.015652
0.488	-0.013985
0.489	-0.008963
0.49	-0.003798
0.491	-0.001412
0.492	-0.002341
0.493	-0.004787
0.494	-0.006674
0.495	-0.007791
0.496	-0.009464
0.497	-0.012094
0.498	-0.014411
0.499	-0.015127
0.5	-0.013641
0.501	-0.009867
0.502	-0.004744
0.503	-0.000482
0.504	0.00029
0.505	-0.003617
0.506	-0.0102
0.507	-0.014952
0.508	-0.014329
0.509	-0.008715
0.51	-0.002
0.511	0.001556
0.512	0.000464
0.513	-0.003197
0.514	-0.005855
0.515	-0.00576
0.516	-0.004349
0.517	-0.00431
0.518	-0.007338
0.519	-0.0133
0.52	-0.019507
0.521	-0.021348
0.522	-0.015348
0.523	-0.001985
0.524	0.014177
0.525	0.027268
0.526	0.03371
0.527	0.033543
0.528	0.029008
0.529	0.022571
0.53	0.015737
0.531	0.008833
0.532	0.002036
0.533	-0.003535
0.534	-0.006549
0.535	-0.007307
0.536	-0.007702
0.537	-0.009035
0.538	-0.011158
0.539	-0.01352
0.54	-0.015243
0.541	-0.014894
0.542	-0.01198
0.543	-0.008519
0.544	-0.007986
0.545	-0.011838
0.546	-0.017023
0.547	-0.017818
0.548	-0.010606
0.549	0.002868
0.55	0.016141
0.551	0.022175
0.552	0.018625
0.553	0.009626
0.554	0.001736
0.555	-0.001822
0.556	-0.002438
0.557	-0.002593
0.558	-0.003263
0.559	-0.004473
0.56	-0.005795
0.561	-0.005994
0.562	-0.002959
0.563	0.006795
0.564	0.028252
0.565	0.06436
0.566	0.108608
0.567	0.141559
0.568	0.141398
0.569	0.104232
0.57	0.052777
0.571	0.020456
0.572	0.02559
0.573	0.060505
0.574	0.102189
0.575	0.130179
0.576	0.136586
0.577	0.125308
0.578	0.105191
0.579	0.083911
0.58	0.066312
0.581	0.054755
0.582	0.048889
0.583	0.04611
0.584	0.04347
0.585	0.039406
0.586	0.033953
0.587	0.028364
0.588	0.024836
0.589	0.025314
0.59	0.029362
0.591	0.033741
0.592	0.0351
0.593	0.033051
0.594	0.030164
0.595	0.028877
0.596	0.029393
0.597	0.030862
0.598	0.032635
0.599	0.033978
0.6	0.034522
0.601	0.034757
0.602	0.035087
0.603	0.035025
0.604	0.033654
0.605	0.030587
0.606	0.026971
0.607	0.025775
0.608	0.029705
0.609	0.037737
0.61	0.044653
0.611	0.045281
0.612	0.039136
0.613	0.030865
0.614	0.026411
0.615	0.028221
0.616	0.033964
0.617	0.039761
0.618	0.043134
0.619	0.043367
0.62	0.041951
0.621	0.042352
0.622	0.046895
0.623	0.053934
0.624	0.059243
0.625	0.060141
0.626	0.057942
0.627	0.056682
0.628	0.059718
0.629	0.067202
0.63	0.076401
0.631	0.083868
0.632	0.087111
0.633	0.085411
0.634	0.079904
0.635	0.072432
0.636	0.064469
0.637	0.057239
0.638	0.051233
0.639	0.045582
0.64	0.039807
0.641	0.035609
0.642	0.035211
0.643	0.03837
0.644	0.041921
0.645	0.042479
0.646	0.039562
0.647	0.036114
0.648	0.035874
0.649	0.040103
0.65	0.04658
0.651	0.051261
0.652	0.051398
0.653	0.047835
0.654	0.043877
0.655	0.041682
0.656	0.040928
0.657	0.040922
0.658	0.041563
0.659	0.042208
0.66	0.042426
0.661	0.043487
0.662	0.046982
0.663	0.052483
0.664	0.057489
0.665	0.059381
0.666	0.057211
0.667	0.052035
0.668	0.04616
0.669	0.042684
0.67	0.045884
0.671	0.060598
0.672	0.088084
0.673	0.119618
0.674	0.13598
0.675	0.12058
0.676	0.077881
0.677	0.035019
0.678	0.019755
0.679	0.037758
0.68	0.072788
0.681	0.103872
0.682	0.119221
0.683	0.118399
0.684	0.10688
0.685	0.090354
0.686	0.07278
0.687	0.057095
0.688	0.04557
0.689	0.038787
0.69	0.034761
0.691	0.030219
0.692	0.023618
0.693	0.016679
0.694	0.012473
0.695	0.012142
0.696	0.014104
0.697	0.016185
0.698	0.016939
0.699	0.015133
0.7	0.010393
0.701	0.004303
0.702	-0.000519
0.703	-0.002622
0.704	-0.003258
0.705	-0.005491
0.706	-0.011031
0.707	-0.018
0.708	-0.022528
0.709	-0.022739
0.71	-0.020736
0.711	-0.020334
0.712	-0.023138
0.713	-0.027267
0.714	-0.029563
0.715	-0.028463
0.716	-0.024768
0.717	-0.020283
0.718	-0.01707
0.719	-0.017424
0.72	-0.022069
0.721	-0.028509
0.722	-0.032746
0.723	-0.032673
0.724	-0.029701
0.725	-0.027238
0.726	-0.02757
0.727	-0.030272
0.728	-0.033264
0.729	-0.034922
0.73	-0.035331
0.731	-0.035761
0.732	-0.036975
0.733	-0.038301
0.734	-0.038303
0.735	-0.036054
0.736	-0.031236
0.737	-0.023271
0.738	-0.012315
0.739	-0.001275
0.74	0.005551
0.741	0.006214
0.742	0.0024
0.743	-0.002982
0.744	-0.008854
0.745	-0.016113
0.746	-0.025129
0.747	-0.03395
0.748	-0.039282
0.749	-0.039293
0.75	-0.03548
0.751	-0.0315
0.752	-0.030078
0.753	-0.031094
0.754	-0.032405
0.755	-0.032386
0.756	-0.03099
0.757	-0.028339
0.758	-0.024665
0.759	-0.021902
0.76	-0.022231
0.761	-0.024806
0.762	-0.026089
0.763	-0.023642
0.764	-0.018558
0.765	-0.014149
0.766	-0.013045
0.767	-0.015562
0.768	-0.020059
0.769	-0.024532
0.77	-0.027986
0.771	-0.030472
0.772	-0.032263
0.773	-0.03325
0.774	-0.033088
0.775	-0.032063
0.776	-0.030963
0.777	-0.029014
0.778	-0.022823
0.779	-0.008109
0.78	0.016832
0.781	0.046031
0.782	0.063818
0.783	0.054691
0.784	0.020244
0.785	-0.017294
0.786	-0.03256
0.787	-0.01729
0.788	0.016354
0.789	0.048204
0.79	0.063959
0.791	0.060725
0.792	0.044385
0.793	0.02375
0.794	0.005612
0.795	-0.0075
0.796	-0.016312
0.797	-0.022003
0.798	-0.025528
0.799	-0.028812
0.8	-0.033496
0.801	-0.038538
0.802	-0.041001
0.803	-0.03903
0.804	-0.033718
0.805	-0.028653
0.806	-0.027523
0.807	-0.031335
0.808	-0.037504
0.809	-0.041668
0.81	-0.040576
0.811	-0.034027
0.812	-0.024928
0.813	-0.017261
0.814	-0.013383
0.815	-0.013112
0.816	-0.014621
0.817	-0.015702
0.818	-0.015643
0.819	-0.016299
0.82	-0.019817
0.821	-0.025674
0.822	-0.03083
0.823	-0.032131
0.824	-0.028754
0.825	-0.0231
0.826	-0.019015
0.827	-0.018605
0.828	-0.020714
0.829	-0.022528
0.83	-0.022364
0.831	-0.020721
0.832	-0.019106
0.833	-0.018421
0.834	-0.018631
0.835	-0.019713
0.836	-0.022038
0.837	-0.025353
0.838	-0.02892
0.839	-0.032952
0.84	-0.037928
0.841	-0.042734
0.842	-0.044708
0.843	-0.041275
0.844	-0.032078
0.845	-0.020086
0.846	-0.009986
0.847	-0.00503
0.848	-0.005297
0.849	-0.008418
0.85	-0.011678
0.851	-0.01397
0.852	-0.016191
0.853	-0.019741
0.854	-0.024806
0.855	-0.030211
0.856	-0.034086
0.857	-0.034335
0.858	-0.030388
0.859	-0.02502
0.86	-0.022257
0.861	-0.023296
0.862	-0.025597
0.863	-0.025717
0.864	-0.022599
0.865	-0.01825
0.866	-0.015701
0.867	-0.016545
0.868	-0.01983
0.869	-0.022702
0.87	-0.022399
0.871	-0.018382
0.872	-0.012708
0.873	-0.008176
0.874	-0.006366
0.875	-0.007171
0.876	-0.009014
0.877	-0.009457
0.878	-0.007455
0.879	-0.005265
0.88	-0.006402
0.881	-0.011936
0.882	-0.019631
0.883	-0.026049
0.884	-0.028576
0.885	-0.024952
0.886	-0.011613
0.887	0.014829
0.888	0.051242
0.889	0.082985
0.89	0.090328
0.891	0.065942
0.892	0.026087
0.893	-0.000604
0.894	0.002682
0.895	0.029067
0.896	0.058061
0.897	0.073802
0.898	0.073189
0.899	0.061015
0.9	0.043209
0.901	0.024818
0.902	0.010079
0.903	0.001566
0.904	-0.001174
0.905	-0.001565
0.906	-0.003743
0.907	-0.009608
0.908	-0.017652
0.909	-0.024523
0.91	-0.027724
0.911	-0.027106
0.912	-0.024446
0.913	-0.022155
0.914	-0.021935
0.915	-0.023957
0.916	-0.026673
0.917	-0.027392
0.918	-0.024729
0.919	-0.020788
0.92	-0.019166
0.921	-0.021037
0.922	-0.024205
0.923	-0.025387
0.924	-0.023
0.925	-0.018292
0.926	-0.014226
0.927	-0.013107
0.928	-0.014888
0.929	-0.017599
0.93	-0.019119
0.931	-0.018424
0.932	-0.016039
0.933	-0.013758
0.934	-0.013327
0.935	-0.015332
0.936	-0.018792
0.937	-0.020941
0.938	-0.019137
0.939	-0.014024
0.94	-0.009103
0.941	-0.007112
0.942	-0.007903
0.943	-0.009373
0.944	-0.009888
0.945	-0.009958
0.946	-0.011601
0.947	-0.015831
0.948	-0.020978
0.949	-0.023803
0.95	-0.021766
0.951	-0.014177
0.952	-0.002499
0.953	0.009837
0.954	0.018566
0.955	0.020198
0.956	0.01387
0.957	0.002625
0.958	-0.008718
0.959	-0.017679
0.96	-0.024686
0.961	-0.030427
0.962	-0.034396
0.963	-0.035388
0.964	-0.032741
0.965	-0.027526
0.966	-0.022591
0.967	-0.020883
0.968	-0.023356
0.969	-0.028317
0.97	-0.032577
0.971	-0.03376
0.972	-0.032174
0.973	-0.03012
0.974	-0.029403
0.975	-0.030028
0.976	-0.03046
0.977	-0.028339
0.978	-0.022686
0.979	-0.01609
0.98	-0.012797
0.981	-0.014533
0.982	-0.019316
0.983	-0.023524
0.984	-0.024539
0.985	-0.022351
0.986	-0.01929
0.987	-0.017974
0.988	-0.019293
0.989	-0.022164
0.99	-0.024771
0.991	-0.025546
0.992	-0.022332
0.993	-0.010984
0.994	0.012339
0.995	0.044402
0.996	0.071113
0.997	0.07504
0.998	0.05047
0.999	0.011559
1.0	-0.016278
1.001	-0.015593
1.002	0.011021
1.003	0.046191
1.004	0.072127
1.005	0.080245
1.006	0.071629
1.007	0.052597
1.008	0.030391
1.009	0.010877
1.01	-0.002551
1.011	-0.009639
1.012	-0.012699
1.013	-0.014533
1.014	-0.016786
1.015	-0.019762
1.016	-0.022455
1.017	-0.022653
1.018	-0.019094
1.019	-0.014001
1.02	-0.011611
1.021	-0.014303
1.022	-0.020878
1.023	-0.027674
1.024	-0.031161
1.025	-0.030182
1.026	-0.026094
1.027	-0.021211
1.028	-0.017307
1.029	-0.015075
1.03	-0.014556
1.031	-0.015769
1.032	-0.018709
1.033	-0.023064
1.034	-0.028333
1.035	-0.033972
1.036	-0.038728
1.037	-0.039996
1.038	-0.035841
1.039	-0.028148
1.04	-0.021667
1.041	-0.01964
1.042	-0.021229
1.043	-0.022821
1.044	-0.021615
1.045	-0.01797
1.046	-0.014367
1.047	-0.012762
1.048	-0.0132
1.049	-0.014315
1.05	-0.014754
1.051	-0.014275
1.052	-0.013739
1.053	-0.014401
1.054	-0.017256
1.055	-0.022404
1.056	-0.028145
1.057	-0.030538
1.058	-0.025871
1.059	-0.014704
1.06	-0.001915
1.061	0.007226
1.062	0.010193
1.063	0.007692
1.064	0.002309
1.065	-0.003324
1.066	-0.007773
1.067	-0.011226
1.068	-0.014869
1.069	-0.019306
1.07	-0.023556
1.071	-0.025913
1.072	-0.025674
1.073	-0.023839
1.074	-0.02221
1.075	-0.022159
1.076	-0.023725
1.077	-0.024992
1.078	-0.023773
1.079	-0.020869
1.08	-0.019622
1.081	-0.02188
1.082	-0.025981
1.083	-0.028666
1.084	-0.028028
1.085	-0.024444
1.086	-0.019587
1.087	-0.015286
1.088	-0.0127
1.089	-0.011812
1.09	-0.011747
1.091	-0.011596
1.092	-0.011024
1.093	-0.01046
1.094	-0.01107
1.095	-0.014558
1.096	-0.021702
1.097	-0.029972
1.098	-0.034354
1.099	-0.030924
1.1	-0.017282
1.101	0.008637
1.102	0.044563
1.103	0.077809
1.104	0.089231
1.105	0.069691
1.106	0.03244
1.107	0.004642
1.108	0.004981
1.109	0.030358
1.11	0.062337
1.111	0.082959
1.112	0.084979
1.113	0.071821
1.114	0.051796
1.115	0.032257
1.116	0.017136
1.117	0.007835
1.118	0.003732
1.119	0.001548
1.12	-0.002749
1.121	-0.010535
1.122	-0.019941
1.123	-0.027843
1.124	-0.03171
1.125	-0.030729
1.126	-0.026426
1.127	-0.022017
1.128	-0.020333
1.129	-0.021845
1.13	-0.024618
1.131	-0.026274
1.132	-0.025906
1.133	-0.024329
1.134	-0.023302
1.135	-0.024794
1.136	-0.029543
1.137	-0.035298
1.138	-0.03832
1.139	-0.037465
1.14	-0.034783
1.141	-0.032448
1.142	-0.030886
1.143	-0.029084
1.144	-0.025855
1.145	-0.021519
1.146	-0.018446
1.147	-0.019275
1.148	-0.024546
1.149	-0.032032
1.15	-0.037865
1.151	-0.038678
1.152	-0.033738
1.153	-0.025415
1.154	-0.017646
1.155	-0.013894
1.156	-0.0152
1.157	-0.019016
1.158	-0.021428
1.159	-0.021371
1.16	-0.021062
1.161	-0.022701
1.162	-0.026173
1.163	-0.029001
1.164	-0.027728
1.165	-0.02018
1.166	-0.007248
1.167	0.007041
1.168	0.017266
1.169	0.019583
1.17	0.014216
1.171	0.005026
1.172	-0.003648
1.173	-0.009567
1.174	-0.012977
1.175	-0.015791
1.176	-0.019635
1.177	-0.023512
1.178	-0.024658
1.179	-0.022383
1.18	-0.01938
1.181	-0.019081
1.182	-0.022486
1.183	-0.027293
1.184	-0.030157
1.185	-0.029831
1.186	-0.027979
1.187	-0.027307
1.188	-0.029098
1.189	-0.032138
1.19	-0.033817
1.191	-0.032428
1.192	-0.028461
1.193	-0.023962
1.194	-0.021446
1.195	-0.023249
1.196	-0.0298
1.197	-0.037344
1.198	-0.040022
1.199	-0.035813
1.2	-0.028514
1.201	-0.023614
1.202	-0.023643
1.203	-0.027309
1.204	-0.031674
1.205	-0.033878
1.206	-0.03079
1.207	-0.01821
1.208	0.007504
1.209	0.043933
1.21	0.07738
1.211	0.087392
1.212	0.063708
1.213	0.02017
1.214	-0.013512
1.215	-0.016434
1.216	0.008706
1.217	0.043266
1.218	0.069095
1.219	0.077279
1.22	0.06813
1.221	0.047853
1.222	0.02456
1.223	0.004843
1.224	-0.008205
1.225	-0.015168
1.226	-0.019096
1.227	-0.023497
1.228	-0.030151
1.229	-0.038074
1.23	-0.044755
1.231	-0.048291
1.232	-0.048274
1.233	-0.045871
1.234	-0.04402
1.235	-0.046423
1.236	-0.054336
1.237	-0.063878
1.238	-0.068596
1.239	-0.06569
1.24	-0.058093
1.241	-0.050707
1.242	-0.046258
1.243	-0.044354
1.244	-0.043107
1.245	-0.04115
1.246	-0.038542
1.247	-0.036254
1.248	-0.035086
1.249	-0.035073
1.25	-0.035511
1.251	-0.035203
1.252	-0.033158
1.253	-0.029717
1.254	-0.026768
1.255	-0.026457
1.256	-0.029144
1.257	-0.032132
1.258	-0.03185
1.259	-0.027939
1.26	-0.023359
1.261	-0.020654
1.262	-0.01984
1.263	-0.019344
1.264	-0.017555
1.265	-0.013663
1.266	-0.008278
1.267	-0.00375
1.268	-0.003051
1.269	-0.007465
1.27	-0.014959
1.271	-0.020712
1.272	-0.019944
1.273	-0.011134
1.274	0.002934
1.275	0.016495
1.276	0.023902
1.277	0.023401
1.278	0.017575
1.279	0.009764
1.28	0.001716
1.281	-0.005775
1.282	-0.012085
1.283	-0.01678
1.284	-0.019625
1.285	-0.02051
1.286	-0.019582
1.287	-0.017484
1.288	-0.01525
1.289	-0.013706
1.29	-0.012712
1.291	-0.011152
1.292	-0.008189
1.293	-0.00456
1.294	-0.002416
1.295	-0.004117
1.296	-0.010185
1.297	-0.017198
1.298	-0.01958
1.299	-0.015049
1.3	-0.006664
1.301	0.000514
1.302	0.003178
1.303	0.001103
1.304	-0.003354
1.305	-0.00694
1.306	-0.007732
1.307	-0.006394
1.308	-0.005457
1.309	-0.007274
1.31	-0.01212
1.311	-0.018028
1.312	-0.022107
1.313	-0.020987
1.314	-0.01037
1.315	0.013159
1.316	0.047449
1.317	0.081158
1.318	0.096558
1.319	0.081933
1.32	0.045528
1.321	0.013063
1.322	0.006728
1.323	0.02792
1.324	0.06035
1.325	0.085507
1.326	0.093917
1.327	0.086182
1.328	0.068359
1.329	0.04755
1.33	0.029402
1.331	0.016739
1.332	0.009529
1.333	0.006098
1.334	0.003837
1.335	-0.000539
1.336	-0.008734
1.337	-0.017917
1.338	-0.022516
1.339	-0.020086
1.34	-0.013489
1.341	-0.007669
1.342	-0.005846
1.343	-0.007917
1.344	-0.011321
1.345	-0.013394
1.346	-0.013114
1.347	-0.01115
1.348	-0.008983
1.349	-0.00797
1.35	-0.008684
1.351	-0.010797
1.352	-0.01322
1.353	-0.01457
1.354	-0.014427
1.355	-0.014267
1.356	-0.015917
1.357	-0.018566
1.358	-0.01915
1.359	-0.016351
1.36	-0.012229
1.361	-0.009924
1.362	-0.011148
1.363	-0.015299
1.364	-0.020089
1.365	-0.02301
1.366	-0.022636
1.367	-0.019476
1.368	-0.015941
1.369	-0.014882
1.37	-0.017651
1.371	-0.023175
1.372	-0.028379
1.373	-0.029995
1.374	-0.027011
1.375	-0.021632
1.376	-0.017294
1.377	-0.015049
1.378	-0.012638
1.379	-0.007368
1.38	0.001551
1.381	0.01296
1.382	0.024104
1.383	0.031231
1.384	0.031286
1.385	0.023705
1.386	0.010679
1.387	-0.003987
1.388	-0.016405
1.389	-0.024115
1.39	-0.02679
1.391	-0.025472
1.392	-0.021287
1.393	-0.015247
1.394	-0.009101
1.395	-0.005499
1.396	-0.00613
1.397	-0.009092
1.398	-0.009788
1.399	-0.005856
1.4	0.000131
1.401	0.003483
1.402	0.001764
1.403	-0.003699
1.404	-0.00958
1.405	-0.013099
1.406	-0.013539
1.407	-0.012428
1.408	-0.012426
1.409	-0.015438
1.41	-0.02109
1.411	-0.026533
1.412	-0.028081
1.413	-0.023776
1.414	-0.014714
1.415	-0.0044
1.416	0.003272
1.417	0.006587
1.418	0.006512
1.419	0.004617
1.42	0.002831
1.421	0.005879
1.422	0.020735
1.423	0.049753
1.424	0.082901
1.425	0.09984
1.426	0.085423
1.427	0.046077
1.428	0.008138
1.429	-0.00339
1.43	0.015788
1.431	0.049967
1.432	0.078943
1.433	0.091241
1.434	0.086253
1.435	0.069048
1.436	0.046155
1.437	0.024988
1.438	0.012118
1.439	0.008993
1.44	0.010928
1.441	0.011438
1.442	0.006948
1.443	-0.001945
1.444	-0.011742
1.445	-0.018159
1.446	-0.018692
1.447	-0.014316
1.448	-0.008801
1.449	-0.006259
1.45	-0.008307
1.451	-0.012566
1.452	-0.014395
1.453	-0.010816
1.454	-0.002992
1.455	0.004766
1.456	0.008709
1.457	0.008932
1.458	0.008617
1.459	0.010168
1.46	0.012961
1.461	0.014262
1.462	0.011487
1.463	0.004515
1.464	-0.003302
1.465	-0.007153
1.466	-0.004785
1.467	0.001253
1.468	0.005396
1.469	0.003418
1.47	-0.004266
1.471	-0.013342
1.472	-0.019302
1.473	-0.019998
1.474	-0.015998
1.475	-0.010697
1.476	-0.008674
1.477	-0.011191
1.478	-0.014447
1.479	-0.013837
1.48	-0.00838
1.481	-0.000728
1.482	0.005419
1.483	0.00791
1.484	0.007197
1.485	0.005447
1.486	0.00537
1.487	0.009362
1.488	0.017621
1.489	0.026778
1.49	0.032052
1.491	0.031118
1.492	0.025184
1.493	0.016966
1.494	0.008313
1.495	-0.00057
1.496	-0.00964
1.497	-0.016978
1.498	-0.019887
1.499	-0.018415
1.5	-0.015863
1.501	-0.015542
1.502	-0.018196
1.503	-0.0221
1.504	-0.024658
1.505	-0.024104
1.506	-0.020675
1.507	-0.016851
1.508	-0.016294
1.509	-0.021345
1.51	-0.030526
1.511	-0.038788
1.512	-0.040471
1.513	-0.03273
1.514	-0.017891
1.515	-0.002752
1.516	0.006221
1.517	0.007975
1.518	0.006441
1.519	0.00566
1.52	0.007024
1.521	0.009898
1.522	0.012489
1.523	0.012618
1.524	0.009034
1.525	0.002424
1.526	-0.004543
1.527	-0.007743
1.528	-0.001911
1.529	0.018226
1.53	0.053033
1.531	0.090906
1.532	0.109678
1.533	0.093279
1.534	0.049618
1.535	0.007204
1.536	-0.008107
1.537	0.008615
1.538	0.042836
1.539	0.074361
1.54	0.090094
1.541	0.088316
1.542	0.074931
1.543	0.057314
1.544	0.040612
1.545	0.027407
1.546	0.018773
1.547	0.014762
1.548	0.014209
1.549	0.014851
1.55	0.014358
1.551	0.011861
1.552	0.008944
1.553	0.008605
1.554	0.012178
1.555	0.01729
1.556	0.019894
1.557	0.018588
1.558	0.01573
1.559	0.014201
1.56	0.014796
1.561	0.016593
1.562	0.018174
1.563	0.01841
1.564	0.017135
1.565	0.015544
1.566	0.015523
1.567	0.018004
1.568	0.021881
1.569	0.024612
1.57	0.023934
1.571	0.019602
1.572	0.014091
1.573	0.010991
1.574	0.011704
1.575	0.013809
1.576	0.013405
1.577	0.009358
1.578	0.004298
1.579	0.001317
1.58	0.001211
1.581	0.002707
1.582	0.003806
1.583	0.002863
1.584	-0.000638
1.585	-0.005716
1.586	-0.010284
1.587	-0.01239
1.588	-0.011633
1.589	-0.009663
1.59	-0.009051
1.591	-0.010748
1.592	-0.012422
1.593	-0.010115
1.594	-0.002084
1.595	0.008839
1.596	0.01697
1.597	0.018546
1.598	0.014258
1.599	0.006998
1.6	-0.000982
1.601	-0.008583
1.602	-0.015613
1.603	-0.022472
1.604	-0.029159
1.605	-0.034266
1.606	-0.035568
1.607	-0.032161
1.608	-0.02605
1.609	-0.021388
1.61	-0.02154
1.611	-0.026211
1.612	-0.031555
1.613	-0.03337
1.614	-0.030276
1.615	-0.024706
1.616	-0.021042
1.617	-0.021662
1.618	-0.02512
1.619	-0.028481
1.62	-0.029944
1.621	-0.029332
1.622	-0.027912
1.623	-0.027926
1.624	-0.031065
1.625	-0.036717
1.626	-0.041915
1.627	-0.043489
1.628	-0.040691
1.629	-0.035943
1.63	-0.03292
1.631	-0.033627
1.632	-0.037049
1.633	-0.039946
1.634	-0.038332
1.635	-0.028691
1.636	-0.008687
1.637	0.021195
1.638	0.053085
1.639	0.070267
1.64	0.058651
1.641	0.023488
1.642	-0.010614
1.643	-0.020166
1.644	-0.001596
1.645	0.029656
1.646	0.053948
1.647	0.060479
1.648	0.050251
1.649	0.030824
1.65	0.009928
1.651	-0.007586
1.652	-0.019857
1.653	-0.026846
1.654	-0.029552
1.655	-0.030324
1.656	-0.032205
1.657	-0.036336
1.658	-0.040824
1.659	-0.042943
1.66	-0.041568
1.661	-0.037725
1.662	-0.034066
1.663	-0.03336
1.664	-0.036261
1.665	-0.040651
1.666	-0.043788
1.667	-0.044853
1.668	-0.045074
1.669	-0.04594
1.67	-0.047771
1.671	-0.049784
1.672	-0.050817
1.673	-0.049859
1.674	-0.046853
1.675	-0.043551
1.676	-0.042557
1.677	-0.044388
1.678	-0.046222
1.679	-0.044514
1.68	-0.038277
1.681	-0.029913
1.682	-0.023599
1.683	-0.02248
1.684	-0.02676
1.685	-0.033983
1.686	-0.040723
1.687	-0.044224
1.688	-0.043411
1.689	-0.039337
1.69	-0.034703
1.691	-0.032133
1.692	-0.032141
1.693	-0.032809
1.694	-0.03215
1.695	-0.030748
1.696	-0.031069
1.697	-0.033875
1.698	-0.03669
1.699	-0.036219
1.7	-0.030917
1.701	-0.021327
1.702	-0.009427
1.703	0.002146
1.704	0.010673
1.705	0.014003
1.706	0.011579
1.707	0.004915
1.708	-0.003373
1.709	-0.011264
1.71	-0.018115
1.711	-0.023832
1.712	-0.027601
1.713	-0.028015
1.714	-0.024597
1.715	-0.018922
1.716	-0.013912
1.717	-0.011607
1.718	-0.011772
1.719	-0.012796
1.72	-0.013219
1.721	-0.012559
1.722	-0.011653
1.723	-0.012366
1.724	-0.016445
1.725	-0.023904
1.726	-0.032176
1.727	-0.037352
1.728	-0.036908
1.729	-0.031638
1.73	-0.02514
1.731	-0.020996
1.732	-0.019812
1.733	-0.019162
1.734	-0.016595
1.735	-0.012466
1.736	-0.009583
1.737	-0.009874
1.738	-0.012267
1.739	-0.014536
1.74	-0.015614
1.741	-0.014809
1.742	-0.009489
1.743	0.005249
1.744	0.033161
1.745	0.070857
1.746	0.104127
1.747	0.113951
1.748	0.092598
1.749	0.054604
1.75	0.027043
1.751	0.027169
1.752	0.050657
1.753	0.079364
1.754	0.096746
1.755	0.096335
1.756	0.080771
1.757	0.057518
1.758	0.034583
1.759	0.016752
1.76	0.004673
1.761	-0.002972
1.762	-0.007674
1.763	-0.011136
1.764	-0.014973
1.765	-0.019169
1.766	-0.021768
1.767	-0.021034
1.768	-0.017587
1.769	-0.014237
1.77	-0.01404
1.771	-0.01815
1.772	-0.024874
1.773	-0.030664
1.774	-0.032574
1.775	-0.030627
1.776	-0.027599
1.777	-0.025958
1.778	-0.025864
1.779	-0.026276
1.78	-0.026288
1.781	-0.025176
1.782	-0.022785
1.783	-0.020304
1.784	-0.019582
1.785	-0.021302
1.786	-0.024069
1.787	-0.025223
1.788	-0.022904
1.789	-0.018081
1.79	-0.014175
1.791	-0.01394
1.792	-0.016894
1.793	-0.019838
1.794	-0.019694
1.795	-0.016245
1.796	-0.012158
1.797	-0.010071
1.798	-0.010436
1.799	-0.01222
1.8	-0.013989
1.801	-0.014231
1.802	-0.012419
1.803	-0.009951
1.804	-0.008875
1.805	-0.00964
1.806	-0.010537
1.807	-0.009118
1.808	-0.004146
1.809	0.003333
1.81	0.010572
1.811	0.014721
1.812	0.014234
1.813	0.009664
1.814	0.003352
1.815	-0.002427
1.816	-0.007163
1.817	-0.011543
1.818	-0.015953
1.819	-0.020199
1.82	-0.02361
1.821	-0.025167
1.822	-0.02456
1.823	-0.022885
1.824	-0.021867
1.825	-0.022624
1.826	-0.024799
1.827	-0.02645
1.828	-0.025557
1.829	-0.02223
1.83	-0.019105
1.831	-0.019308
1.832	-0.023725
1.833	-0.029777
1.834	-0.033278
1.835	-0.032325
1.836	-0.029105
1.837	-0.027139
1.838	-0.027687
1.839	-0.029579
1.84	-0.030908
1.841	-0.030076
1.842	-0.026527
1.843	-0.021223
1.844	-0.016426
1.845	-0.014696
1.846	-0.017146
1.847	-0.022264
1.848	-0.026629
1.849	-0.026363
1.85	-0.017528
1.851	0.003121
1.852	0.034313
1.853	0.065527
1.854	0.079176
1.855	0.063605
1.856	0.026601
1.857	-0.007175
1.858	-0.015944
1.859	0.002062
1.86	0.031022
1.861	0.053127
1.862	0.060047
1.863	0.053273
1.864	0.038481
1.865	0.021169
1.866	0.005638
1.867	-0.005256
1.868	-0.01099
1.869	-0.013527
1.87	-0.01608
1.871	-0.021288
1.872	-0.029312
1.873	-0.037101
1.874	-0.040665
1.875	-0.039029
1.876	-0.035332
1.877	-0.033424
1.878	-0.034462
1.879	-0.037202
1.88	-0.039798
1.881	-0.040694
1.882	-0.039147
1.883	-0.035901
1.884	-0.033274
1.885	-0.033633
1.886	-0.036984
1.887	-0.040267
1.888	-0.039674
1.889	-0.034183
1.89	-0.026909
1.891	-0.022696
1.892	-0.023862
1.893	-0.028157
1.894	-0.031068
1.895	-0.030131
1.896	-0.026821
1.897	-0.024355
1.898	-0.024671
1.899	-0.027885
1.9	-0.032764
1.901	-0.03685
1.902	-0.03763
1.903	-0.034544
1.904	-0.029434
1.905	-0.024684
1.906	-0.021169
1.907	-0.018105
1.908	-0.014568
1.909	-0.011141
1.91	-0.010248
1.911	-0.014321
1.912	-0.022884
1.913	-0.031776
1.914	-0.035724
1.915	-0.031855
1.916	-0.021196
1.917	-0.007408
1.918	0.005166
1.919	0.012671
1.92	0.013211
1.921	0.008034
1.922	0.000457
1.923	-0.006709
1.924	-0.012768
1.925	-0.018592
1.926	-0.024525
1.927	-0.028871
1.928	-0.029005
1.929	-0.024369
1.93	-0.017893
1.931	-0.013861
1.932	-0.01439
1.933	-0.018135
1.934	-0.021987
1.935	-0.024031
1.936	-0.025127
1.937	-0.027228
1.938	-0.030801
1.939	-0.034651
1.94	-0.036817
1.941	-0.035067
1.942	-0.028271
1.943	-0.018204
1.944	-0.009164
1.945	-0.005062
1.946	-0.006592
1.947	-0.010892
1.948	-0.013992
1.949	-0.014153
1.95	-0.012939
1.951	-0.012997
1.952	-0.015451
1.953	-0.019375
1.954	-0.022561
1.955	-0.022672
1.956	-0.018015
1.957	-0.006688
1.958	0.01362
1.959	0.041793
1.96	0.068644
1.961	0.078997
1.962	0.063192
1.963	0.029247
1.964	0.000543
1.965	-0.00247
1.966	0.021903
1.967	0.058166
1.968	0.087314
1.969	0.098483
1.97	0.091487
1.971	0.072565
1.972	0.049074
1.973	0.026972
1.974	0.010449
1.975	0.001002
1.976	-0.003386
1.977	-0.006352
1.978	-0.010186
1.979	-0.015054
1.98	-0.019613
1.981	-0.021696
1.982	-0.019921
1.983	-0.015444
1.984	-0.011606
1.985	-0.011451
1.986	-0.015429
1.987	-0.021027
1.988	-0.024464
1.989	-0.023381
1.99	-0.018527
1.991	-0.013205
1.992	-0.010894
1.993	-0.012604
1.994	-0.016304
1.995	-0.019173
1.996	-0.019897
1.997	-0.018684
1.998	-0.016448
1.999	-0.01461
2.0	-0.014321
2.001	-0.015314
2.002	-0.016327
2.003	-0.016555
2.004	-0.016055
2.005	-0.015095
2.006	-0.013787
2.007	-0.01219
2.008	-0.010287
2.009	-0.007914
2.01	-0.00513
2.011	-0.002865
2.012	-0.002558
2.013	-0.004377
2.014	-0.006508
2.015	-0.007058
2.016	-0.005868
2.017	-0.003996
2.018	-0.002624
2.019	-0.002789
2.02	-0.004625
2.021	-0.006404
2.022	-0.005318
2.023	0.000405
2.024	0.009729
2.025	0.018638
2.026	0.022468
2.027	0.019579
2.028	0.012698
2.029	0.006223
2.03	0.002536
2.031	0.000933
2.032	-0.00054
2.033	-0.002728
2.034	-0.004986
2.035	-0.006697
2.036	-0.00822
2.037	-0.009936
2.038	-0.01142
2.039	-0.012357
2.04	-0.013044
2.041	-0.013392
2.042	-0.012557
2.043	-0.010133
2.044	-0.007383
2.045	-0.006764
2.046	-0.009678
2.047	-0.014543
2.048	-0.017601
2.049	-0.016174
2.05	-0.011261
2.051	-0.006767
2.052	-0.006024
2.053	-0.00907
2.054	-0.013073
2.055	-0.014897
2.056	-0.013302
2.057	-0.009237
2.058	-0.005035
2.059	-0.003616
2.06	-0.006979
2.061	-0.014349
2.062	-0.022001
2.063	-0.02484
2.064	-0.018028
2.065	0.001883
2.066	0.034455
2.067	0.070977
2.068	0.094191
2.069	0.089029
2.07	0.057972
2.071	0.023128
2.072	0.009163
2.073	0.02393
2.074	0.055383
2.075	0.083937
2.076	0.09628
2.077	0.091026
2.078	0.07528
2.079	0.05699
2.08	0.04043
2.081	0.027117
2.082	0.017911
2.083	0.012827
2.084	0.009722
2.085	0.005058
2.086	-0.003046
2.087	-0.012529
2.088	-0.018453
2.089	-0.017074
2.09	-0.00945
2.091	-0.00083
2.092	0.003688
2.093	0.002886
2.094	-0.000562
2.095	-0.003239
2.096	-0.003841
2.097	-0.002872
2.098	-0.001092
2.099	0.000452
2.1	0.00055
2.101	-0.000571
2.102	-0.000987
2.103	0.000691
2.104	0.003687
2.105	0.00614
2.106	0.007011
2.107	0.00674
2.108	0.006588
2.109	0.007243
2.11	0.00782
2.111	0.006585
2.112	0.002786
2.113	-0.002376
2.114	-0.006526
2.115	-0.008023
2.116	-0.007104
2.117	-0.004997
2.118	-0.002846
2.119	-0.001894
2.12	-0.003049
2.121	-0.005439
2.122	-0.006724
2.123	-0.005483
2.124	-0.002711
2.125	-0.00101
2.126	-0.002481
2.127	-0.006516
2.128	-0.009302
2.129	-0.006462
2.13	0.003251
2.131	0.01688
2.132	0.029426
2.133	0.036863
2.134	0.037707
2.135	0.032537
2.136	0.022955
2.137	0.01148
2.138	0.001163
2.139	-0.006191
2.14	-0.010763
2.141	-0.013098
2.142	-0.013063
2.143	-0.010708
2.144	-0.007153
2.145	-0.004366
2.146	-0.003807
2.147	-0.004858
2.148	-0.00516
2.149	-0.003021
2.15	0.000828
2.151	0.003815
2.152	0.003523
2.153	-0.000367
2.154	-0.005468
2.155	-0.008235
2.156	-0.006645
2.157	-0.001599
2.158	0.003671
2.159	0.005397
2.16	0.002007
2.161	-0.004116
2.162	-0.00848
2.163	-0.008215
2.164	-0.003928
2.165	0.001144
2.166	0.003602
2.167	0.00223
2.168	-0.00169
2.169	-0.005794
2.17	-0.007608
2.171	-0.004027
2.172	0.009224
2.173	0.035065
2.174	0.068618
2.175	0.093521
2.176	0.09089
2.177	0.058043
2.178	0.01605
2.179	-0.006709
2.18	0.002113
2.181	0.032752
2.182	0.065507
2.183	0.085426
2.184	0.087826
2.185	0.075412
2.186	0.054176
2.187	0.031481
2.188	0.014402
2.189	0.007018
2.19	0.008234
2.191	0.012341
2.192	0.012855
2.193	0.007293
2.194	-0.001384
2.195	-0.008125
2.196	-0.010046
2.197	-0.007443
2.198	-0.002672
2.199	0.000579
2.2	-0.000991
2.201	-0.00733
2.202	-0.014485
2.203	-0.017889
2.204	-0.016119
2.205	-0.011386
2.206	-0.006798
2.207	-0.003793
2.208	-0.001946
2.209	-0.000231
2.21	0.001615
2.211	0.002391
2.212	0.000469
2.213	-0.003964
2.214	-0.008343
2.215	-0.009855
2.216	-0.00755
2.217	-0.00213
2.218	0.00499
2.219	0.011412
2.22	0.014123
2.221	0.011768
2.222	0.006304
2.223	0.001516
2.224	-0.00038
2.225	-0.000595
2.226	-0.002451
2.227	-0.008035
2.228	-0.015644
2.229	-0.020803
2.23	-0.020277
2.231	-0.014971
2.232	-0.008816
2.233	-0.005318
2.234	-0.00541
2.235	-0.007602
2.236	-0.008923
2.237	-0.005823
2.238	0.00391
2.239	0.018441
2.24	0.03186
2.241	0.03827
2.242	0.035968
2.243	0.02768
2.244	0.017561
2.245	0.008294
2.246	0.00039
2.247	-0.006502
2.248	-0.012035
2.249	-0.015246
2.25	-0.015936
2.251	-0.015193
2.252	-0.014375
2.253	-0.013978
2.254	-0.013339
2.255	-0.011065
2.256	-0.006041
2.257	0.001542
2.258	0.009512
2.259	0.014073
2.26	0.01252
2.261	0.006429
2.262	0.000971
2.263	0.000572
2.264	0.005452
2.265	0.01194
2.266	0.015772
2.267	0.015438
2.268	0.012893
2.269	0.011399
2.27	0.012704
2.271	0.016004
2.272	0.019161
2.273	0.020512
2.274	0.01964
2.275	0.016774
2.276	0.012115
2.277	0.006986
2.278	0.005469
2.279	0.013455
2.28	0.035118
2.281	0.06804
2.282	0.099446
2.283	0.110822
2.284	0.093262
2.285	0.058988
2.286	0.033005
2.287	0.032243
2.288	0.054124
2.289	0.082746
2.29	0.102497
2.291	0.106698
2.292	0.097412
2.293	0.080581
2.294	0.062234
2.295	0.046843
2.296	0.036495
2.297	0.031115
2.298	0.029198
2.299	0.027833
2.3	0.023723
2.301	0.016116
2.302	0.008111
2.303	0.00404
2.304	0.005649
2.305	0.010683
2.306	0.014679
2.307	0.014247
2.308	0.009263
2.309	0.002545
2.31	-0.002161
2.311	-0.002481
2.312	0.001114
2.313	0.006061
2.314	0.010176
2.315	0.012909
2.316	0.014688
2.317	0.016307
2.318	0.018335
2.319	0.019879
2.32	0.018795
2.321	0.014251
2.322	0.008273
2.323	0.004153
2.324	0.00356
2.325	0.004983
2.326	0.004824
2.327	0.000575
2.328	-0.006671
2.329	-0.012831
2.33	-0.013868
2.331	-0.008767
2.332	-0.000309
2.333	0.007202
2.334	0.011029
2.335	0.010907
2.336	0.008229
2.337	0.005412
2.338	0.004766
2.339	0.006272
2.34	0.007286
2.341	0.005645
2.342	0.00236
2.343	0.000872
2.344	0.004323
2.345	0.013136
2.346	0.024322
2.347	0.033051
2.348	0.03544
2.349	0.030589
2.35	0.020776
2.351	0.009863
2.352	0.001045
2.353	-0.004413
2.354	-0.006923
2.355	-0.007459
2.356	-0.006415
2.357	-0.003383
2.358	0.001529
2.359	0.006162
2.36	0.007159
2.361	0.002933
2.362	-0.004484
2.363	-0.010658
2.364	-0.012266
2.365	-0.010058
2.366	-0.008061
2.367	-0.009448
2.368	-0.013325
2.369	-0.015721
2.37	-0.013572
2.371	-0.007504
2.372	-0.000751
2.373	0.003953
2.374	0.005837
2.375	0.005261
2.376	0.002816
2.377	-0.000172
2.378	-0.001447
2.379	0.000305
2.38	0.003861
2.381	0.006689
2.382	0.007297
2.383	0.006174
2.384	0.005141
2.385	0.00696
2.386	0.016342
2.387	0.039496
2.388	0.077794
2.389	0.11891
2.39	0.138708
2.391	0.120465
2.392	0.074419
2.393	0.032836
2.394	0.022991
2.395	0.046916
2.396	0.085356
2.397	0.116209
2.398	0.128421
2.399	0.122661
2.4	0.104814
2.401	0.081601
2.402	0.05964
2.403	0.044465
2.404	0.038336
2.405	0.038897
2.406	0.040632
2.407	0.038342
2.408	0.030309
2.409	0.019404
2.41	0.011163
2.411	0.009592
2.412	0.013925
2.413	0.019395
2.414	0.021428
2.415	0.018783
2.416	0.012979
2.417	0.00686
2.418	0.003874
2.419	0.005506
2.42	0.008704
2.421	0.00843
2.422	0.003556
2.423	-0.001538
2.424	-0.002243
2.425	0.001024
2.426	0.004326
2.427	0.005285
2.428	0.00507
2.429	0.006698
2.43	0.012288
2.431	0.021049
2.432	0.029609
2.433	0.034859
2.434	0.036296
2.435	0.035211
2.436	0.032763
2.437	0.030269
2.438	0.029725
2.439	0.031605
2.44	0.033474
2.441	0.033045
2.442	0.031564
2.443	0.032501
2.444	0.037543
2.445	0.045152
2.446	0.052598
2.447	0.0583
2.448	0.06226
2.449	0.065158
2.45	0.067774
2.451	0.071056
2.452	0.075559
2.453	0.080371
2.454	0.083347
2.455	0.082791
2.456	0.078921
2.457	0.073866
2.458	0.069935
2.459	0.06732
2.46	0.063992
2.461	0.05836
2.462	0.051384
2.463	0.045835
2.464	0.043977
2.465	0.045656
2.466	0.048304
2.467	0.049381
2.468	0.048821
2.469	0.048733
2.47	0.0511
2.471	0.055938
2.472	0.061092
2.473	0.063737
2.474	0.06246
2.475	0.058036
2.476	0.052711
2.477	0.049387
2.478	0.0503
2.479	0.054665
2.48	0.058501
2.481	0.058332
2.482	0.054441
2.483	0.050215
2.484	0.049016
2.485	0.051349
2.486	0.054622
2.487	0.055778
2.488	0.05374
2.489	0.049348
2.49	0.044362
2.491	0.041427
2.492	0.044573
2.493	0.05875
2.494	0.086566
2.495	0.121933
2.496	0.14702
2.497	0.142135
2.498	0.104721
2.499	0.056338
2.5	0.026576
2.501	0.030192
2.502	0.059259
2.503	0.093745
2.504	0.117215
2.505	0.124103
2.506	0.117187
2.507	0.102128
2.508	0.083971
2.509	0.066362
2.51	0.051978
2.511	0.042248
2.512	0.036511
2.513	0.032506
2.514	0.028314
2.515	0.023634
2.516	0.019444
2.517	0.01719
2.518	0.017783
2.519	0.020034
2.52	0.020631
2.521	0.016943
2.522	0.009709
2.523	0.002752
2.524	-0.000152
2.525	0.001438
2.526	0.00459
2.527	0.006295
2.528	0.006243
2.529	0.006406
2.53	0.008541
2.531	0.012302
2.532	0.015567
2.533	0.016458
2.534	0.014809
2.535	0.011832
2.536	0.009155
2.537	0.008615
2.538	0.011659
2.539	0.017337
2.54	0.021784
2.541	0.021319
2.542	0.015796
2.543	0.008482
2.544	0.003084
2.545	0.001043
2.546	0.001227
2.547	0.001549
2.548	0.00065
2.549	-0.001417
2.55	-0.003713
2.551	-0.005621
2.552	-0.007258
2.553	-0.008757
2.554	-0.009906
2.555	-0.010534
2.556	-0.010507
2.557	-0.008964
2.558	-0.004406
2.559	0.003432
2.56	0.012509
2.561	0.020027
2.562	0.02427
2.563	0.024818
2.564	0.021971
2.565	0.016412
2.566	0.009205
2.567	0.001819
2.568	-0.004269
2.569	-0.00823
2.57	-0.01022
2.571	-0.011094
2.572	-0.011546
2.573	-0.011723
2.574	-0.011924
2.575	-0.013134
2.576	-0.016206
2.577	-0.020191
2.578	-0.022303
2.579	-0.021119
2.58	-0.018967
2.581	-0.01945
2.582	-0.023348
2.583	-0.027854
2.584	-0.029199
2.585	-0.025786
2.586	-0.019508
2.587	-0.014393
2.588	-0.013557
2.589	-0.017239
2.59	-0.023215
2.591	-0.028158
2.592	-0.029169
2.593	-0.025714
2.594	-0.020178
2.595	-0.015828
2.596	-0.014419
2.597	-0.015557
2.598	-0.017544
2.599	-0.018434
2.6	-0.015561
2.601	-0.00431
2.602	0.019064
2.603	0.049815
2.604	0.071391
2.605	0.065809
2.606	0.031613
2.607	-0.010492
2.608	-0.033766
2.609	-0.027308
2.61	-0.001592
2.611	0.024238
2.612	0.037272
2.613	0.035417
2.614	0.023193
2.615	0.00625
2.616	-0.011222
2.617	-0.02606
2.618	-0.035456
2.619	-0.038541
2.62	-0.037941
2.621	-0.037817
2.622	-0.040148
2.623	-0.043405
2.624	-0.044513
2.625	-0.04192
2.626	-0.037124
2.627	-0.033346
2.628	-0.032768
2.629	-0.035244
2.63	-0.039039
2.631	-0.041876
2.632	-0.041992
2.633	-0.039322
2.634	-0.035552
2.635	-0.032901
2.636	-0.032625
2.637	-0.033747
2.638	-0.033471
2.639	-0.030333
2.64	-0.026496
2.641	-0.025675
2.642	-0.029417
2.643	-0.035805
2.644	-0.040993
2.645	-0.041965
2.646	-0.038646
2.647	-0.033871
2.648	-0.031304
2.649	-0.032861
2.65	-0.03734
2.651	-0.041317
2.652	-0.04192
2.653	-0.03893
2.654	-0.034465
2.655	-0.031376
2.656	-0.031477
2.657	-0.033948
2.658	-0.035723
2.659	-0.034667
2.66	-0.031809
2.661	-0.029792
2.662	-0.030073
2.663	-0.031812
2.664	-0.032536
2.665	-0.029997
2.666	-0.023883
2.667	-0.015702
2.668	-0.007428
2.669	-0.000742
2.67	0.003066
2.671	0.003398
2.672	0.000662
2.673	-0.003855
2.674	-0.008988
2.675	-0.014894
2.676	-0.022445
2.677	-0.030753
2.678	-0.036511
2.679	-0.037193
2.68	-0.033934
2.681	-0.030035
2.682	-0.02772
2.683	-0.026802
2.684	-0.025394
2.685	-0.021737
2.686	-0.015955
2.687	-0.010201
2.688	-0.0071
2.689	-0.007952
2.69	-0.011943
2.691	-0.01668
2.692	-0.019526
2.693	-0.018884
2.694	-0.015174
2.695	-0.010934
2.696	-0.009173
2.697	-0.010741
2.698	-0.013473
2.699	-0.014598
2.7	-0.01367
2.701	-0.012654
2.702	-0.013799
2.703	-0.017632
2.704	-0.022549
2.705	-0.026015
2.706	-0.025614
2.707	-0.018726
2.708	-0.002104
2.709	0.026223
2.71	0.061943
2.711	0.090704
2.712	0.094069
2.713	0.065622
2.714	0.021403
2.715	-0.010439
2.716	-0.012245
2.717	0.011686
2.718	0.043271
2.719	0.065546
2.72	0.070814
2.721	0.060545
2.722	0.041386
2.723	0.020919
2.724	0.004619
2.725	-0.005683
2.726	-0.011263
2.727	-0.014365
2.728	-0.016472
2.729	-0.018165
2.73	-0.01961
2.731	-0.020539
2.732	-0.02004
2.733	-0.017407
2.734	-0.013706
2.735	-0.011852
2.736	-0.014472
2.737	-0.021163
2.738	-0.027991
2.739	-0.03084
2.74	-0.029203
2.741	-0.025881
2.742	-0.023723
2.743	-0.023441
2.744	-0.023871
2.745	-0.023384
2.746	-0.021007
2.747	-0.017053
2.748	-0.013296
2.749	-0.012099
2.75	-0.014587
2.751	-0.01931
2.752	-0.022951
2.753	-0.022987
2.754	-0.019865
2.755	-0.016559
2.756	-0.016263
2.757	-0.019926
2.758	-0.025501
2.759	-0.030087
2.76	-0.032543
2.761	-0.033485
2.762	-0.033754
2.763	-0.033719
2.764	-0.033357
2.765	-0.032338
2.766	-0.030198
2.767	-0.026838
2.768	-0.022876
2.769	-0.019557
2.77	-0.018059
2.771	-0.018285
2.772	-0.018215
2.773	-0.01505
2.774	-0.007542
2.775	0.002319
2.776	0.00987
2.777	0.011163
2.778	0.006274
2.779	-0.001578
2.78	-0.009556
2.781	-0.016623
2.782	-0.022757
2.783	-0.028259
2.784	-0.033137
2.785	-0.036507
2.786	-0.037072
2.787	-0.034373
2.788	-0.029476
2.789	-0.024662
2.79	-0.022297
2.791	-0.023206
2.792	-0.025934
2.793	-0.027962
2.794	-0.027812
2.795	-0.026153
2.796	-0.024977
2.797	-0.02539
2.798	-0.026205
2.799	-0.025236
2.8	-0.02159
2.801	-0.016218
2.802	-0.011313
2.803	-0.009376
2.804	-0.011168
2.805	-0.014472
2.806	-0.016206
2.807	-0.015609
2.808	-0.014696
2.809	-0.016231
2.81	-0.021516
2.811	-0.029385
2.812	-0.036966
2.813	-0.041367
2.814	-0.040303
2.815	-0.031363
2.816	-0.012025
2.817	0.017306
2.818	0.048324
2.819	0.064993
2.82	0.055175
2.821	0.024876
2.822	-0.003532
2.823	-0.009929
2.824	0.0081
2.825	0.036639
2.826	0.058159
2.827	0.062989
2.828	0.052249
2.829	0.033208
2.83	0.013255
2.831	-0.002747
2.832	-0.012404
2.833	-0.015612
2.834	-0.014565
2.835	-0.012856
2.836	-0.013691
2.837	-0.018082
2.838	-0.024159
2.839	-0.028714
2.84	-0.029953
2.841	-0.028812
2.842	-0.02805
2.843	-0.029978
2.844	-0.034427
2.845	-0.038897
2.846	-0.040726
2.847	-0.039249
2.848	-0.036341
2.849	-0.034975
2.85	-0.036824
2.851	-0.040803
2.852	-0.04388
2.853	-0.043544
2.854	-0.039803
2.855	-0.035256
2.856	-0.033135
2.857	-0.034414
2.858	-0.036615
2.859	-0.036252
2.86	-0.032471
2.861	-0.027751
2.862	-0.025449
2.863	-0.026938
2.864	-0.030827
2.865	-0.034558
2.866	-0.036325
2.867	-0.035635
2.868	-0.032758
2.869	-0.028253
2.87	-0.023183
2.871	-0.01927
2.872	-0.017886
2.873	-0.018671
2.874	-0.020097
2.875	-0.021858
2.876	-0.025486
2.877	-0.03151
2.878	-0.036939
2.879	-0.037207
2.88	-0.030207
2.881	-0.017575
2.882	-0.003304
2.883	0.008053
2.884	0.013085
2.885	0.010963
2.886	0.003585
2.887	-0.005957
2.888	-0.015164
2.889	-0.022974
2.89	-0.029685
2.891	-0.035933
2.892	-0.041178
2.893	-0.043625
2.894	-0.042199
2.895	-0.03816
2.896	-0.034243
2.897	-0.032136
2.898	-0.031043
2.899	-0.029162
2.9	-0.026085
2.901	-0.023079
2.902	-0.021711
2.903	-0.022739
2.904	-0.025566
2.905	-0.028252
2.906	-0.02852
2.907	-0.025414
2.908	-0.020119
2.909	-0.015194
2.91	-0.01319
2.911	-0.015209
2.912	-0.019688
2.913	-0.023107
2.914	-0.02311
2.915	-0.020859
2.916	-0.019925
2.917	-0.022622
2.918	-0.027599
2.919	-0.031607
2.92	-0.032628
2.921	-0.029732
2.922	-0.020607
2.923	-0.001334
2.924	0.028967
2.925	0.061439
2.926	0.077742
2.927	0.063586
2.928	0.025418
2.929	-0.010573
2.93	-0.020032
2.931	0.000395
2.932	0.034907
2.933	0.064226
2.934	0.077711
2.935	0.074857
2.936	0.060603
2.937	0.041288
2.938	0.023066
2.939	0.010161
2.94	0.003119
2.941	-0.00033
2.942	-0.003002
2.943	-0.006905
2.944	-0.012493
2.945	-0.018331
2.946	-0.022058
2.947	-0.022317
2.948	-0.020093
2.949	-0.01852
2.95	-0.020952
2.951	-0.028036
2.952	-0.036577
2.953	-0.041965
2.954	-0.04177
2.955	-0.037279
2.956	-0.032268
2.957	-0.029799
2.958	-0.02961
2.959	-0.029204
2.96	-0.027072
2.961	-0.02373
2.962	-0.02057
2.963	-0.018876
2.964	-0.019324
2.965	-0.021725
2.966	-0.025064
2.967	-0.027759
2.968	-0.02848
2.969	-0.027414
2.97	-0.026363
2.971	-0.026954
2.972	-0.028884
2.973	-0.030132
2.974	-0.028786
2.975	-0.025125
2.976	-0.022055
2.977	-0.022367
2.978	-0.025454
2.979	-0.028218
2.98	-0.028698
2.981	-0.027214
2.982	-0.025196
2.983	-0.024291
2.984	-0.025483
2.985	-0.027986
2.986	-0.029144
2.987	-0.025884
2.988	-0.016944
2.989	-0.004243
2.99	0.007903
2.991	0.015143
2.992	0.01531
2.993	0.00951
2.994	0.001363
2.995	-0.005682
2.996	-0.010744
2.997	-0.014978
2.998	-0.019202
2.999	-0.023197
3.0	-0.026667
3.001	-0.0295
3.002	-0.031716
3.003	-0.033736
3.004	-0.03594
3.005	-0.037935
3.006	-0.038662
3.007	-0.037254
3.008	-0.033975
3.009	-0.030406
3.01	-0.028449
3.011	-0.028963
3.012	-0.030919
3.013	-0.031603
3.014	-0.02861
3.015	-0.022671
3.016	-0.017963
3.017	-0.018434
3.018	-0.023717
3.019	-0.029547
3.02	-0.031861
3.021	-0.029731
3.022	-0.025341
3.023	-0.021987
3.024	-0.021819
3.025	-0.025165
3.026	-0.030992
3.027	-0.036999
3.028	-0.039566
3.029	-0.034221
3.03	-0.016685
3.031	0.014379
3.032	0.052522
3.033	0.081717
3.034	0.085191
3.035	0.061378
3.036	0.029391
3.037	0.014283
3.038	0.026645
3.039	0.056632
3.04	0.085008
3.041	0.098092
3.042	0.093895
3.043	0.078414
3.044	0.059224
3.045	0.041765
3.046	0.028947
3.047	0.021875
3.048	0.019706
3.049	0.019456
3.05	0.017354
3.051	0.011276
3.052	0.002514
3.053	-0.004885
3.054	-0.007422
3.055	-0.005313
3.056	-0.002539
3.057	-0.003442
3.058	-0.008721
3.059	-0.015065
3.06	-0.018467
3.061	-0.017195
3.062	-0.012346
3.063	-0.00667
3.064	-0.003025
3.065	-0.003193
3.066	-0.006756
3.067	-0.010768
3.068	-0.011775
3.069	-0.008987
3.07	-0.005216
3.071	-0.004218
3.072	-0.00685
3.073	-0.010177
3.074	-0.010492
3.075	-0.006866
3.076	-0.002079
3.077	-0.000117
3.078	-0.002276
3.079	-0.006445
3.08	-0.009931
3.081	-0.011406
3.082	-0.010742
3.083	-0.008711
3.084	-0.006832
3.085	-0.006408
3.086	-0.007134
3.087	-0.007168
3.088	-0.005082
3.089	-0.001622
3.09	0.000539
3.091	-0.001031
3.092	-0.006059
3.093	-0.011161
3.094	-0.011986
3.095	-0.00607
3.096	0.00537
3.097	0.018089
3.098	0.027487
3.099	0.03052
3.1	0.026295
3.101	0.016679
3.102	0.005648
3.103	-0.00345
3.104	-0.009891
3.105	-0.014699
3.106	-0.018352
3.107	-0.019785
3.108	-0.017616
3.109	-0.012105
3.11	-0.005662
3.111	-0.00133
3.112	-0.000573
3.113	-0.002226
3.114	-0.00355
3.115	-0.002917
3.116	-0.001756
3.117	-0.003049
3.118	-0.007731
3.119	-0.013666
3.12	-0.017623
3.121	-0.016942
3.122	-0.010843
3.123	-0.001786
3.124	0.00559
3.125	0.007905
3.126	0.005366
3.127	0.00124
3.128	-0.000686
3.129	0.000937
3.13	0.003934
3.131	0.00463
3.132	0.001009
3.133	-0.005901
3.134	-0.012885
3.135	-0.016182
3.136	-0.012505
3.137	0.000929
3.138	0.025468
3.139	0.056817
3.14	0.081764
3.141	0.084439
3.142	0.060783
3.143	0.026605
3.144	0.007424
3.145	0.017942
3.146	0.051613
3.147	0.088735
3.148	0.111868
3.149	0.114501
3.15	0.10001
3.151	0.07618
3.152	0.050601
3.153	0.028839
3.154	0.01421
3.155	0.007185
3.156	0.004808
3.157	0.00253
3.158	-0.001922
3.159	-0.007037
3.16	-0.00985
3.161	-0.008824
3.162	-0.005077
3.163	-0.001547
3.164	-0.000917
3.165	-0.004501
3.166	-0.012146
3.167	-0.021696
3.168	-0.029202
3.169	-0.03141
3.17	-0.028294
3.171	-0.022656
3.172	-0.017507
3.173	-0.013967
3.174	-0.011151
3.175	-0.007883
3.176	-0.00461
3.177	-0.003052
3.178	-0.003777
3.179	-0.005408
3.18	-0.006287
3.181	-0.005735
3.182	-0.004352
3.183	-0.003939
3.184	-0.006547
3.185	-0.01307
3.186	-0.022419
3.187	-0.031956
3.188	-0.038958
3.189	-0.042009
3.19	-0.041545
3.191	-0.039473
3.192	-0.037935
3.193	-0.037653
3.194	-0.037249
3.195	-0.034784
3.196	-0.030147
3.197	-0.025324
3.198	-0.022281
3.199	-0.021627
3.2	-0.022811
3.201	-0.023962
3.202	-0.022178
3.203	-0.015496
3.204	-0.005001
3.205	0.00507
3.206	0.009873
3.207	0.007381
3.208	-0.000345
3.209	-0.009075
3.21	-0.015666
3.211	-0.019926
3.212	-0.023494
3.213	-0.026994
3.214	-0.029065
3.215	-0.028532
3.216	-0.026608
3.217	-0.025835
3.218	-0.027071
3.219	-0.028908
3.22	-0.029706
3.221	-0.02868
3.222	-0.025675
3.223	-0.021419
3.224	-0.017809
3.225	-0.016934
3.226	-0.019344
3.227	-0.023268
3.228	-0.02576
3.229	-0.025001
3.23	-0.021933
3.231	-0.019573
3.232	-0.020198
3.233	-0.023111
3.234	-0.025302
3.235	-0.024143
3.236	-0.019559
3.237	-0.013904
3.238	-0.009945
3.239	-0.009566
3.24	-0.013636
3.241	-0.021287
3.242	-0.029288
3.243	-0.032686
3.244	-0.025802
3.245	-0.003991
3.246	0.03175
3.247	0.069506
3.248	0.089049
3.249	0.076733
3.25	0.040494
3.251	0.006278
3.252	-0.002917
3.253	0.016013
3.254	0.048038
3.255	0.074249
3.256	0.083629
3.257	0.075672
3.258	0.056812
3.259	0.034853
3.26	0.015085
3.261	0.000105
3.262	-0.009191
3.263	-0.013752
3.264	-0.016432
3.265	-0.020507
3.266	-0.027244
3.267	-0.034447
3.268	-0.037812
3.269	-0.034731
3.27	-0.027281
3.271	-0.020887
3.272	-0.019651
3.273	-0.023233
3.274	-0.027851
3.275	-0.029598
3.276	-0.027288
3.277	-0.022615
3.278	-0.017852
3.279	-0.014471
3.28	-0.013314
3.281	-0.013904
3.282	-0.014101
3.283	-0.012089
3.284	-0.008348
3.285	-0.00522
3.286	-0.004654
3.287	-0.006157
3.288	-0.007107
3.289	-0.005633
3.29	-0.002804
3.291	-0.001398
3.292	-0.003154
3.293	-0.007709
3.294	-0.013043
3.295	-0.016435
3.296	-0.016154
3.297	-0.012655
3.298	-0.007969
3.299	-0.004714
3.3	-0.005013
3.301	-0.008463
3.302	-0.011836
3.303	-0.012254
3.304	-0.010022
3.305	-0.007675
3.306	-0.006854
3.307	-0.006654
3.308	-0.004705
3.309	0.000613
3.31	0.009066
3.311	0.019127
3.312	0.028501
3.313	0.034206
3.314	0.033917
3.315	0.027805
3.316	0.018016
3.317	0.006992
3.318	-0.002713
3.319	-0.00906
3.32	-0.012094
3.321	-0.012991
3.322	-0.011851
3.323	-0.00832
3.324	-0.003927
3.325	-0.00212
3.326	-0.005168
3.327	-0.011419
3.328	-0.01655
3.329	-0.017652
3.33	-0.015533
3.331	-0.013404
3.332	-0.014293
3.333	-0.01876
3.334	-0.023774
3.335	-0.024659
3.336	-0.01932
3.337	-0.010211
3.338	-0.00197
3.339	0.002263
3.34	0.002923
3.341	0.003657
3.342	0.007939
3.343	0.015361
3.344	0.022173
3.345	0.025014
3.346	0.023401
3.347	0.019318
3.348	0.015273
3.349	0.013122
3.35	0.014844
3.351	0.023944
3.352	0.045208
3.353	0.080692
3.354	0.122296
3.355	0.149242
3.356	0.140891
3.357	0.098084
3.358	0.048242
3.359	0.023415
3.36	0.034264
3.361	0.066739
3.362	0.09856
3.363	0.115249
3.364	0.114289
3.365	0.100216
3.366	0.079215
3.367	0.057598
3.368	0.041505
3.369	0.034634
3.37	0.035575
3.371	0.038306
3.372	0.036512
3.373	0.028379
3.374	0.017571
3.375	0.009855
3.376	0.008564
3.377	0.012717
3.378	0.018855
3.379	0.023543
3.38	0.024745
3.381	0.023115
3.382	0.021817
3.383	0.023761
3.384	0.029118
3.385	0.035473
3.386	0.039831
3.387	0.040709
3.388	0.038923
3.389	0.036502
3.39	0.034713
3.391	0.033169
3.392	0.030797
3.393	0.027467
3.394	0.024636
3.395	0.024476
3.396	0.027969
3.397	0.033802
3.398	0.039482
3.399	0.04263
3.4	0.041468
3.401	0.036104
3.402	0.029405
3.403	0.02526
3.404	0.025341
3.405	0.027477
3.406	0.027561
3.407	0.023423
3.408	0.016845
3.409	0.011809
3.41	0.01068
3.411	0.012144
3.412	0.012964
3.413	0.011316
3.414	0.008257
3.415	0.006611
3.416	0.008621
3.417	0.014605
3.418	0.023507
3.419	0.033108
3.42	0.039691
3.421	0.040011
3.422	0.034283
3.423	0.025903
3.424	0.018117
3.425	0.011637
3.426	0.005311
3.427	-0.00172
3.428	-0.008743
3.429	-0.014161
3.43	-0.017356
3.431	-0.019618
3.432	-0.023023
3.433	-0.028437
3.434	-0.034345
3.435	-0.037711
3.436	-0.036631
3.437	-0.031873
3.438	-0.025741
3.439	-0.020809
3.44	-0.019239
3.441	-0.020942
3.442	-0.022809
3.443	-0.021528
3.444	-0.016982
3.445	-0.012361
3.446	-0.011421
3.447	-0.015594
3.448	-0.022717
3.449	-0.028392
3.45	-0.029376
3.451	-0.026188
3.452	-0.022729
3.453	-0.022963
3.454	-0.027499
3.455	-0.033772
3.456	-0.038925
3.457	-0.040532
3.458	-0.034597
3.459	-0.01613
3.46	0.015348
3.461	0.050224
3.462	0.070129
3.463	0.060233
3.464	0.025041
3.465	-0.011027
3.466	-0.023362
3.467	-0.006738
3.468	0.024585
3.469	0.051463
3.47	0.062526
3.471	0.057122
3.472	0.041364
3.473	0.022739
3.474	0.006977
3.475	-0.002805
3.476	-0.006452
3.477	-0.006442
3.478	-0.006094
3.479	-0.008025
3.48	-0.013445
3.481	-0.021062
3.482	-0.027353
3.483	-0.02938
3.484	-0.027144
3.485	-0.023392
3.486	-0.021606
3.487	-0.023638
3.488	-0.02859
3.489	-0.033778
3.49	-0.036824
3.491	-0.03709
3.492	-0.035723
3.493	-0.034516
3.494	-0.034404
3.495	-0.034968
3.496	-0.035354
3.497	-0.035019
3.498	-0.033445
3.499	-0.030602
3.5	-0.027885
3.501	-0.026965
3.502	-0.02787
3.503	-0.029025
3.504	-0.02904
3.505	-0.02865
3.506	-0.030457
3.507	-0.035936
3.508	-0.043007
3.509	-0.047233
3.51	-0.045522
3.511	-0.03879
3.512	-0.031257
3.513	-0.027051
3.514	-0.027217
3.515	-0.029937
3.516	-0.033108
3.517	-0.035614
3.518	-0.036412
3.519	-0.034868
3.52	-0.032261
3.521	-0.030486
3.522	-0.029328
3.523	-0.026378
3.524	-0.019546
3.525	-0.009468
3.526	0.000511
3.527	0.006724
3.528	0.007518
3.529	0.00376
3.53	-0.002334
3.531	-0.008858
3.532	-0.015094
3.533	-0.021015
3.534	-0.026303
3.535	-0.030248
3.536	-0.032368
3.537	-0.03251
3.538	-0.030534
3.539	-0.027255
3.54	-0.025144
3.541	-0.025975
3.542	-0.028398
3.543	-0.029344
3.544	-0.027412
3.545	-0.024412
3.546	-0.023746
3.547	-0.027227
3.548	-0.033107
3.549	-0.037044
3.55	-0.035396
3.551	-0.028272
3.552	-0.019542
3.553	-0.01371
3.554	-0.013003
3.555	-0.0171
3.556	-0.024245
3.557	-0.031641
3.558	-0.03582
3.559	-0.035048
3.56	-0.031471
3.561	-0.02905
3.562	-0.029782
3.563	-0.032745
3.564	-0.035387
3.565	-0.034249
3.566	-0.024741
3.567	-0.002574
3.568	0.030991
3.569	0.063517
3.57	0.074989
3.571	0.054202
3.572	0.013318
3.573	-0.01892
3.574	-0.021081
3.575	0.005232
3.576	0.04104
3.577	0.066778
3.578	0.074107
3.579	0.065441
3.58	0.046825
3.581	0.023975
3.582	0.002326
3.583	-0.013558
3.584	-0.021829
3.585	-0.024118
3.586	-0.024033
3.587	-0.024473
3.588	-0.025899
3.589	-0.026761
3.59	-0.02563
3.591	-0.022917
3.592	-0.020371
3.593	-0.01948
3.594	-0.020633
3.595	-0.023012
3.596	-0.025118
3.597	-0.02553
3.598	-0.023227
3.599	-0.018665
3.6	-0.01459
3.601	-0.013759
3.602	-0.01597
3.603	-0.018476
3.604	-0.018932
3.605	-0.017766
3.606	-0.017901
3.607	-0.021707
3.608	-0.028071
3.609	-0.032972
3.61	-0.033036
3.611	-0.028229
3.612	-0.021466
3.613	-0.016427
3.614	-0.015399
3.615	-0.018129
3.616	-0.022538
3.617	-0.026217
3.618	-0.02711
3.619	-0.024723
3.62	-0.021321
3.621	-0.019849
3.622	-0.020698
3.623	-0.021885
3.624	-0.021695
3.625	-0.020335
3.626	-0.019479
3.627	-0.0206
3.628	-0.023569
3.629	-0.026603
3.63	-0.027311
3.631	-0.023739
3.632	-0.015403
3.633	-0.0042
3.634	0.00617
3.635	0.012369
3.636	0.012995
3.637	0.008786
3.638	0.002053
3.639	-0.005279
3.64	-0.013457
3.641	-0.023222
3.642	-0.033135
3.643	-0.040195
3.644	-0.04245
3.645	-0.040392
3.646	-0.036347
3.647	-0.032702
3.648	-0.030383
3.649	-0.028605
3.65	-0.02581
3.651	-0.021135
3.652	-0.015553
3.653	-0.011452
3.654	-0.010811
3.655	-0.014076
3.656	-0.020449
3.657	-0.027799
3.658	-0.03245
3.659	-0.031763
3.66	-0.027346
3.661	-0.023371
3.662	-0.022173
3.663	-0.022916
3.664	-0.023377
3.665	-0.022227
3.666	-0.020057
3.667	-0.018506
3.668	-0.018549
3.669	-0.019898
3.67	-0.021774
3.671	-0.023473
3.672	-0.023494
3.673	-0.017948
3.674	-0.001165
3.675	0.029013
3.676	0.064116
3.677	0.085442
3.678	0.077631
3.679	0.044487
3.68	0.00867
3.681	-0.006135
3.682	0.006954
3.683	0.036075
3.684	0.06301
3.685	0.075843
3.686	0.072706
3.687	0.058425
3.688	0.039574
3.689	0.021414
3.69	0.007023
3.691	-0.002806
3.692	-0.009199
3.693	-0.013985
3.694	-0.018583
3.695	-0.023717
3.696	-0.029316
3.697	-0.034057
3.698	-0.035447
3.699	-0.032227
3.7	-0.026837
3.701	-0.023519
3.702	-0.024179
3.703	-0.027035
3.704	-0.028739
3.705	-0.027723
3.706	-0.025498
3.707	-0.024483
3.708	-0.025102
3.709	-0.025556
3.71	-0.024077
3.711	-0.020906
3.712	-0.017995
3.713	-0.017193
3.714	-0.019048
3.715	-0.022777
3.716	-0.026793
3.717	-0.029221
3.718	-0.028262
3.719	-0.023796
3.72	-0.018975
3.721	-0.017983
3.722	-0.021847
3.723	-0.027524
3.724	-0.030752
3.725	-0.029363
3.726	-0.024174
3.727	-0.017531
3.728	-0.011678
3.729	-0.007959
3.73	-0.006672
3.731	-0.007441
3.732	-0.009689
3.733	-0.012982
3.734	-0.01714
3.735	-0.021734
3.736	-0.025647
3.737	-0.027169
3.738	-0.024353
3.739	-0.016694
3.74	-0.006877
3.741	0.000837
3.742	0.003935
3.743	0.002705
3.744	-0.001118
3.745	-0.006061
3.746	-0.011596
3.747	-0.017739
3.748	-0.02419
3.749	-0.029716
3.75	-0.032582
3.751	-0.031731
3.752	-0.027565
3.753	-0.022007
3.754	-0.017797
3.755	-0.017034
3.756	-0.019973
3.757	-0.024455
3.758	-0.026379
3.759	-0.022963
3.76	-0.016231
3.761	-0.011393
3.762	-0.01175
3.763	-0.016134
3.764	-0.020642
3.765	-0.022079
3.766	-0.020292
3.767	-0.017866
3.768	-0.017349
3.769	-0.019005
3.77	-0.021521
3.771	-0.023708
3.772	-0.024873
3.773	-0.02467
3.774	-0.023259
3.775	-0.021305
3.776	-0.019741
3.777	-0.01924
3.778	-0.019408
3.779	-0.018607
3.78	-0.013681
3.781	0.000649
3.782	0.028182
3.783	0.063278
3.784	0.088746
3.785	0.087199
3.786	0.057936
3.787	0.02092
3.788	0.00098
3.789	0.008079
3.79	0.032879
3.791	0.057994
3.792	0.071122
3.793	0.069697
3.794	0.057661
3.795	0.040409
3.796	0.021987
3.797	0.005222
3.798	-0.007132
3.799	-0.013506
3.8	-0.01565
3.801	-0.017422
3.802	-0.021276
3.803	-0.02665
3.804	-0.030947
3.805	-0.032009
3.806	-0.03054
3.807	-0.029974
3.808	-0.033212
3.809	-0.039784
3.81	-0.046354
3.811	-0.04919
3.812	-0.046247
3.813	-0.038258
3.814	-0.02849
3.815	-0.021043
3.816	-0.018573
3.817	-0.020532
3.818	-0.023237
3.819	-0.023187
3.82	-0.020801
3.821	-0.019625
3.822	-0.022479
3.823	-0.028986
3.824	-0.035663
3.825	-0.038409
3.826	-0.035922
3.827	-0.030831
3.828	-0.027419
3.829	-0.028286
3.83	-0.032731
3.831	-0.037607
3.832	-0.039712
3.833	-0.037967
3.834	-0.03374
3.835	-0.029463
3.836	-0.027049
3.837	-0.026815
3.838	-0.027183
3.839	-0.026511
3.84	-0.025363
3.841	-0.025659
3.842	-0.028214
3.843	-0.031763
3.844	-0.033598
3.845	-0.031468
3.846	-0.025459
3.847	-0.017837
3.848	-0.011298
3.849	-0.007595
3.85	-0.007239
3.851	-0.009768
3.852	-0.014151
3.853	-0.0191
3.854	-0.023558
3.855	-0.027565
3.856	-0.032455
3.857	-0.038923
3.858	-0.044665
3.859	-0.045995
3.86	-0.042373
3.861	-0.037266
3.862	-0.034469
3.863	-0.0348
3.864	-0.036247
3.865	-0.036678
3.866	-0.035967
3.867	-0.035631
3.868	-0.037043
3.869	-0.04017
3.87	-0.043565
3.871	-0.045253
3.872	-0.043825
3.873	-0.039175
3.874	-0.032652
3.875	-0.026742
3.876	-0.023946
3.877	-0.024835
3.878	-0.026966
3.879	-0.027172
3.88	-0.025201
3.881	-0.023648
3.882	-0.024741
3.883	-0.028459
3.884	-0.033126
3.885	-0.0368
3.886	-0.037693
3.887	-0.033214
3.888	-0.019204
3.889	0.00779
3.89	0.044352
3.891	0.075616
3.892	0.08179
3.893	0.05583
3.894	0.014327
3.895	-0.014274
3.896	-0.013383
3.897	0.011292
3.898	0.041891
3.899	0.063315
3.9	0.069236
3.901	0.060942
3.902	0.044123
3.903	0.025347
3.904	0.009702
3.905	-0.000117
3.906	-0.004196
3.907	-0.005082
3.908	-0.00608
3.909	-0.009014
3.91	-0.013388
3.911	-0.017286
3.912	-0.018732
3.913	-0.016956
3.914	-0.013428
3.915	-0.011349
3.916	-0.013437
3.917	-0.019487
3.918	-0.025615
3.919	-0.027416
3.92	-0.024409
3.921	-0.019815
3.922	-0.016699
3.923	-0.015807
3.924	-0.015894
3.925	-0.014864
3.926	-0.011209
3.927	-0.005315
3.928	0.000423
3.929	0.003172
3.93	0.001692
3.931	-0.002688
3.932	-0.006752
3.933	-0.00776
3.934	-0.005787
3.935	-0.003506
3.936	-0.003894
3.937	-0.007835
3.938	-0.012898
3.939	-0.01538
3.94	-0.014136
3.941	-0.011029
3.942	-0.008309
3.943	-0.006948
3.944	-0.006674
3.945	-0.006629
3.946	-0.006232
3.947	-0.00568
3.948	-0.005629
3.949	-0.006527
3.95	-0.008247
3.951	-0.009734
3.952	-0.008781
3.953	-0.00308
3.954	0.007707
3.955	0.020853
3.956	0.031263
3.957	0.034211
3.958	0.029112
3.959	0.019864
3.96	0.010742
3.961	0.003572
3.962	-0.001528
3.963	-0.004837
3.964	-0.006395
3.965	-0.005854
3.966	-0.003072
3.967	0.00111
3.968	0.004951
3.969	0.006667
3.97	0.00551
3.971	0.002587
3.972	0.000422
3.973	0.00104
3.974	0.004425
3.975	0.008702
3.976	0.011409
3.977	0.011319
3.978	0.009928
3.979	0.01002
3.98	0.012291
3.981	0.014876
3.982	0.015607
3.983	0.013431
3.984	0.008854
3.985	0.004017
3.986	0.001533
3.987	0.002479
3.988	0.005525
3.989	0.008158
3.99	0.008755
3.991	0.007425
3.992	0.005126
3.993	0.003113
3.994	0.003863
3.995	0.01166
3.996	0.030485
3.997	0.059497
3.998	0.089269
3.999	0.103612
4.0	0.090895
4.001	0.057839
4.002	0.027937
4.003	0.021981
4.004	0.041694
4.005	0.071889
4.006	0.09447
4.007	0.1
4.008	0.089941
4.009	0.071688
4.01	0.05252
4.011	0.036691
4.012	0.02555
4.013	0.018848
4.014	0.015602
4.015	0.013997
4.016	0.011495
4.017	0.006438
4.018	6.2e-05
4.019	-0.004425
4.02	-0.005334
4.021	-0.003963
4.022	-0.003137
4.023	-0.005096
4.024	-0.009725
4.025	-0.01434
4.026	-0.015564
4.027	-0.011685
4.028	-0.003953
4.029	0.003978
4.03	0.008423
4.031	0.008013
4.032	0.004273
4.033	0.000313
4.034	-0.001546
4.035	-0.001509
4.036	-0.001912
4.037	-0.004827
4.038	-0.009428
4.039	-0.012416
4.04	-0.011572
4.041	-0.007842
4.042	-0.004173
4.043	-0.003052
4.044	-0.004724
4.045	-0.007528
4.046	-0.009583
4.047	-0.009625
4.048	-0.007057
4.049	-0.002368
4.05	0.002518
4.051	0.005155
4.052	0.004523
4.053	0.002112
4.054	0.000377
4.055	-1.4e-05
4.056	-0.001091
4.057	-0.005177
4.058	-0.011167
4.059	-0.014616
4.06	-0.01202
4.061	-0.003462
4.062	0.008323
4.063	0.019695
4.064	0.027311
4.065	0.029186
4.066	0.025804
4.067	0.020043
4.068	0.014937
4.069	0.011217
4.07	0.007551
4.071	0.003073
4.072	-0.001072
4.073	-0.002879
4.074	-0.001559
4.075	0.001829
4.076	0.005194
4.077	0.006999
4.078	0.007894
4.079	0.009735
4.08	0.01244
4.081	0.013536
4.082	0.010984
4.083	0.005226
4.084	-0.001327
4.085	-0.005882
4.086	-0.006564
4.087	-0.003369
4.088	0.001687
4.089	0.005823
4.09	0.007184
4.091	0.005772
4.092	0.00354
4.093	0.003402
4.094	0.00712
4.095	0.013355
4.096	0.017839
4.097	0.016776
4.098	0.010866
4.099	0.004574
4.1	0.001612
4.101	0.003637
4.102	0.013171
4.103	0.034511
4.104	0.068766
4.105	0.10664
4.106	0.128227
4.107	0.116187
4.108	0.073986
4.109	0.02828
4.11	0.008349
4.111	0.023267
4.112	0.059038
4.113	0.093554
4.114	0.11222
4.115	0.112771
4.116	0.100525
4.117	0.08237
4.118	0.064402
4.119	0.050792
4.12	0.0422
4.121	0.036408
4.122	0.030875
4.123	0.024198
4.124	0.016561
4.125	0.010085
4.126	0.007752
4.127	0.010722
4.128	0.016868
4.129	0.022191
4.13	0.023348
4.131	0.019548
4.132	0.013161
4.133	0.008359
4.134	0.008227
4.135	0.012446
4.136	0.017402
4.137	0.019199
4.138	0.017405
4.139	0.014999
4.14	0.014566
4.141	0.016156
4.142	0.018198
4.143	0.019074
4.144	0.018609
4.145	0.018368
4.146	0.019751
4.147	0.021965
4.148	0.022765
4.149	0.021179
4.15	0.018726
4.151	0.017944
4.152	0.020227
4.153	0.024719
4.154	0.028886
4.155	0.030461
4.156	0.028857
4.157	0.024684
4.158	0.019142
4.159	0.014144
4.16	0.011814
4.161	0.013358
4.162	0.01747
4.163	0.019747
4.164	0.016225
4.165	0.008563
4.166	0.003948
4.167	0.008844
4.168	0.023002
4.169	0.03942
4.17	0.049948
4.171	0.051058
4.172	0.044757
4.173	0.035657
4.174	0.028287
4.175	0.02558
4.176	0.027416
4.177	0.030471
4.178	0.031176
4.179	0.028987
4.18	0.026433
4.181	0.026792
4.182	0.031164
4.183	0.037159
4.184	0.041145
4.185	0.041696
4.186	0.040651
4.187	0.041017
4.188	0.043801
4.189	0.047076
4.19	0.048173
4.191	0.046336
4.192	0.043273
4.193	0.041923
4.194	0.044469
4.195	0.050172
4.196	0.05481
4.197	0.053917
4.198	0.047793
4.199	0.041692
4.2	0.040367
4.201	0.044153
4.202	0.049977
4.203	0.054218
4.204	0.054633
4.205	0.050807
4.206	0.043937
4.207	0.036644
4.208	0.033022
4.209	0.038599
4.21	0.05861
4.211	0.092875
4.212	0.12981
4.213	0.148387
4.214	0.133475
4.215	0.092674
4.216	0.053951
4.217	0.043217
4.218	0.064935
4.219	0.102717
4.22	0.134403
4.221	0.14672
4.222	0.139686
4.223	0.121295
4.224	0.100131
4.225	0.081835
4.226	0.069216
4.227	0.062824
4.228	0.060796
4.229	0.059438
4.23	0.055331
4.231	0.04736
4.232	0.037379
4.233	0.029304
4.234	0.02652
4.235	0.02907
4.236	0.033326
4.237	0.034994
4.238	0.033034
4.239	0.030118
4.24	0.029295
4.241	0.031448
4.242	0.035286
4.243	0.038381
4.244	0.038558
4.245	0.035054
4.246	0.02878
4.247	0.021849
4.248	0.016605
4.249	0.014254
4.25	0.013931
4.251	0.013475
4.252	0.011818
4.253	0.010376
4.254	0.011317
4.255	0.014672
4.256	0.017482
4.257	0.016185
4.258	0.01043
4.259	0.003523
4.26	-0.001237
4.261	-0.002887
4.262	-0.002008
4.263	0.000115
4.264	0.001698
4.265	0.001289
4.266	-0.00105
4.267	-0.003691
4.268	-0.004922
4.269	-0.004699
4.27	-0.004947
4.271	-0.007764
4.272	-0.012966
4.273	-0.017591
4.274	-0.017825
4.275	-0.011379
4.276	0.000903
4.277	0.01517
4.278	0.02695
4.279	0.033101
4.28	0.031995
4.281	0.024164
4.282	0.012786
4.283	0.00179
4.284	-0.006731
4.285	-0.013087
4.286	-0.0184
4.287	-0.022659
4.288	-0.024582
4.289	-0.023494
4.29	-0.020729
4.291	-0.018568
4.292	-0.018009
4.293	-0.017991
4.294	-0.016655
4.295	-0.01342
4.296	-0.010326
4.297	-0.010626
4.298	-0.014999
4.299	-0.020354
4.3	-0.023044
4.301	-0.021519
4.302	-0.016216
4.303	-0.009157
4.304	-0.003711
4.305	-0.003165
4.306	-0.008472
4.307	-0.017031
4.308	-0.024038
4.309	-0.025937
4.31	-0.023079
4.311	-0.01903
4.312	-0.017465
4.313	-0.019537
4.314	-0.023449
4.315	-0.026043
4.316	-0.024421
4.317	-0.015428
4.318	0.00502
4.319	0.037424
4.32	0.071234
4.321	0.08656
4.322	0.069832
4.323	0.029571
4.324	-0.006843
4.325	-0.015196
4.326	0.006981
4.327	0.042507
4.328	0.070876
4.329	0.081365
4.33	0.074669
4.331	0.057268
4.332	0.035891
4.333	0.015724
4.334	0.000718
4.335	-0.007358
4.336	-0.010579
4.337	-0.013524
4.338	-0.018837
4.339	-0.025206
4.34	-0.029744
4.341	-0.030326
4.342	-0.026355
4.343	-0.019523
4.344	-0.013618
4.345	-0.01263
4.346	-0.018286
4.347	-0.028359
4.348	-0.037352
4.349	-0.040058
4.35	-0.035422
4.351	-0.027146
4.352	-0.02044
4.353	-0.017869
4.354	-0.01816
4.355	-0.018771
4.356	-0.019009
4.357	-0.020219
4.358	-0.023159
4.359	-0.026671
4.36	-0.029159
4.361	-0.029538
4.362	-0.027158
4.363	-0.022466
4.364	-0.017452
4.365	-0.014702
4.366	-0.015507
4.367	-0.018401
4.368	-0.020053
4.369	-0.018271
4.37	-0.013975
4.371	-0.010305
4.372	-0.010041
4.373	-0.013456
4.374	-0.018248
4.375	-0.021506
4.376	-0.021968
4.377	-0.020724
4.378	-0.019665
4.379	-0.019838
4.38	-0.021248
4.381	-0.022807
4.382	-0.022691
4.383	-0.019425
4.384	-0.012615
4.385	-0.00354
4.386	0.005093
4.387	0.011011
4.388	0.013863
4.389	0.014685
4.39	0.014441
4.391	0.013283
4.392	0.01103
4.393	0.008009
4.394	0.005096
4.395	0.002875
4.396	0.000778
4.397	-0.002441
4.398	-0.006667
4.399	-0.009888
4.4	-0.010494
4.401	-0.008675
4.402	-0.005341
4.403	-0.001248
4.404	0.002367
4.405	0.003363
4.406	0.000128
4.407	-0.00638
4.408	-0.012541
4.409	-0.014406
4.41	-0.01063
4.411	-0.003632
4.412	0.002219
4.413	0.003804
4.414	0.001148
4.415	-0.003087
4.416	-0.005904
4.417	-0.006046
4.418	-0.004137
4.419	-0.002104
4.42	-0.002564
4.421	-0.006784
4.422	-0.012744
4.423	-0.016027
4.424	-0.012061
4.425	0.003106
4.426	0.031835
4.427	0.070218
4.428	0.103385
4.429	0.11107
4.43	0.084844
4.431	0.0402
4.432	0.006778
4.433	0.004421
4.434	0.029597
4.435	0.062754
4.436	0.084589
4.437	0.086675
4.438	0.072525
4.439	0.05153
4.44	0.031707
4.441	0.017228
4.442	0.009667
4.443	0.008369
4.444	0.010001
4.445	0.009896
4.446	0.004841
4.447	-0.005079
4.448	-0.016433
4.449	-0.024362
4.45	-0.02603
4.451	-0.022841
4.452	-0.019004
4.453	-0.018002
4.454	-0.020173
4.455	-0.023051
4.456	-0.02388
4.457	-0.021756
4.458	-0.017519
4.459	-0.012879
4.46	-0.009869
4.461	-0.009332
4.462	-0.009817
4.463	-0.00921
4.464	-0.006991
4.465	-0.004348
4.466	-0.002807
4.467	-0.002942
4.468	-0.003959
4.469	-0.004535
4.47	-0.004243
4.471	-0.003965
4.472	-0.005027
4.473	-0.008138
4.474	-0.012648
4.475	-0.016592
4.476	-0.018108
4.477	-0.01684
4.478	-0.013622
4.479	-0.009896
4.48	-0.007677
4.481	-0.008188
4.482	-0.01034
4.483	-0.011879
4.484	-0.011825
4.485	-0.01153
4.486	-0.013663
4.487	-0.0195
4.488	-0.026639
4.489	-0.029971
4.49	-0.025404
4.491	-0.012916
4.492	0.003395
4.493	0.017881
4.494	0.026278
4.495	0.027079
4.496	0.021101
4.497	0.010678
4.498	-0.000538
4.499	-0.008835
4.5	-0.012914
4.501	-0.014055
4.502	-0.013841
4.503	-0.012827
4.504	-0.011074
4.505	-0.009428
4.506	-0.009655
4.507	-0.012511
4.508	-0.016202
4.509	-0.017762
4.51	-0.015946
4.511	-0.012417
4.512	-0.010373
4.513	-0.012053
4.514	-0.016944
4.515	-0.022018
4.516	-0.024027
4.517	-0.021797
4.518	-0.016454
4.519	-0.010691
4.52	-0.007912
4.521	-0.009856
4.522	-0.014518
4.523	-0.01758
4.524	-0.015992
4.525	-0.010246
4.526	-0.003647
4.527	0.000411
4.528	0.000502
4.529	-0.002614
4.53	-0.006689
4.531	-0.008661
4.532	-0.004767
4.533	0.009466
4.534	0.036309
4.535	0.069121
4.536	0.089935
4.537	0.08113
4.538	0.044449
4.539	0.004239
4.54	-0.012827
4.541	0.000887
4.542	0.032535
4.543	0.062679
4.544	0.078281
4.545	0.07645
4.546	0.061436
4.547	0.040373
4.548	0.020361
4.549	0.006505
4.55	0.000227
4.551	-0.00138
4.552	-0.003514
4.553	-0.009545
4.554	-0.018545
4.555	-0.026762
4.556	-0.03091
4.557	-0.03004
4.558	-0.025184
4.559	-0.01881
4.56	-0.014642
4.561	-0.015511
4.562	-0.020518
4.563	-0.025445
4.564	-0.026319
4.565	-0.022512
4.566	-0.016778
4.567	-0.012567
4.568	-0.011389
4.569	-0.012435
4.57	-0.014189
4.571	-0.016145
4.572	-0.01892
4.573	-0.022858
4.574	-0.027094
4.575	-0.029999
4.576	-0.030283
4.577	-0.027801
4.578	-0.023435
4.579	-0.018961
4.58	-0.016914
4.581	-0.018683
4.582	-0.022529
4.583	-0.024817
4.584	-0.023325
4.585	-0.019127
4.586	-0.015494
4.587	-0.014984
4.588	-0.017336
4.589	-0.019942
4.59	-0.020325
4.591	-0.018384
4.592	-0.016194
4.593	-0.015848
4.594	-0.017776
4.595	-0.020572
4.596	-0.022022
4.597	-0.020335
4.598	-0.014411
4.599	-0.004522
4.6	0.006342
4.601	0.013859
4.602	0.015964
4.603	0.01395
4.604	0.010267
4.605	0.006253
4.606	0.001838
4.607	-0.003356
4.608	-0.009161
4.609	-0.015155
4.61	-0.021277
4.611	-0.027301
4.612	-0.031833
4.613	-0.033455
4.614	-0.032655
4.615	-0.030834
4.616	-0.028263
4.617	-0.024288
4.618	-0.018608
4.619	-0.012449
4.62	-0.008827
4.621	-0.01028
4.622	-0.015914
4.623	-0.021648
4.624	-0.023575
4.625	-0.020947
4.626	-0.016283
4.627	-0.012949
4.628	-0.012521
4.629	-0.014081
4.63	-0.015542
4.631	-0.015496
4.632	-0.01432
4.633	-0.013888
4.634	-0.015933
4.635	-0.02058
4.636	-0.026737
4.637	-0.032945
4.638	-0.036541
4.639	-0.033019
4.64	-0.017794
4.641	0.010761
4.642	0.04721
4.643	0.076385
4.644	0.080575
4.645	0.055897
4.646	0.020133
4.647	-0.000433
4.648	0.007367
4.649	0.035529
4.65	0.065327
4.651	0.082475
4.652	0.083314
4.653	0.07156
4.654	0.053242
4.655	0.034062
4.656	0.018243
4.657	0.008081
4.658	0.004114
4.659	0.004728
4.66	0.005932
4.661	0.003796
4.662	-0.002355
4.663	-0.009917
4.664	-0.015535
4.665	-0.017452
4.666	-0.016579
4.667	-0.015594
4.668	-0.016597
4.669	-0.019496
4.67	-0.022348
4.671	-0.023192
4.672	-0.021875
4.673	-0.019953
4.674	-0.018809
4.675	-0.018476
4.676	-0.01833
4.677	-0.017999
4.678	-0.017144
4.679	-0.015744
4.68	-0.015021
4.681	-0.016298
4.682	-0.018788
4.683	-0.019849
4.684	-0.017439
4.685	-0.012175
4.686	-0.007429
4.687	-0.007134
4.688	-0.012419
4.689	-0.020068
4.69	-0.024952
4.691	-0.024299
4.692	-0.01956
4.693	-0.014494
4.694	-0.012076
4.695	-0.013252
4.696	-0.017545
4.697	-0.02349
4.698	-0.028298
4.699	-0.029112
4.7	-0.02605
4.701	-0.022439
4.702	-0.021129
4.703	-0.021364
4.704	-0.019446
4.705	-0.012329
4.706	-0.00065
4.707	0.011563
4.708	0.019727
4.709	0.021344
4.71	0.016808
4.711	0.00846
4.712	-0.000928
4.713	-0.009112
4.714	-0.014871
4.715	-0.018112
4.716	-0.01929
4.717	-0.018671
4.718	-0.016219
4.719	-0.012567
4.72	-0.01001
4.721	-0.011146
4.722	-0.016096
4.723	-0.021798
4.724	-0.024286
4.725	-0.021966
4.726	-0.016942
4.727	-0.013218
4.728	-0.013535
4.729	-0.017336
4.73	-0.021209
4.731	-0.021603
4.732	-0.017615
4.733	-0.011487
4.734	-0.0068
4.735	-0.006109
4.736	-0.009792
4.737	-0.016153
4.738	-0.021876
4.739	-0.023889
4.74	-0.022261
4.741	-0.020173
4.742	-0.020456
4.743	-0.023045
4.744	-0.025854
4.745	-0.026862
4.746	-0.024113
4.747	-0.014002
4.748	0.007851
4.749	0.040576
4.75	0.071908
4.751	0.082359
4.752	0.062005
4.753	0.023833
4.754	-0.004355
4.755	-0.003101
4.756	0.024523
4.757	0.059525
4.758	0.0839
4.759	0.090518
4.76	0.081217
4.761	0.061521
4.762	0.038101
4.763	0.017373
4.764	0.003397
4.765	-0.003417
4.766	-0.005548
4.767	-0.00653
4.768	-0.009079
4.769	-0.013622
4.77	-0.01829
4.771	-0.020655
4.772	-0.019676
4.773	-0.016472
4.774	-0.013646
4.775	-0.013626
4.776	-0.017218
4.777	-0.022898
4.778	-0.027008
4.779	-0.02617
4.78	-0.020604
4.781	-0.013957
4.782	-0.00961
4.783	-0.008161
4.784	-0.008086
4.785	-0.007748
4.786	-0.006955
4.787	-0.007012
4.788	-0.009014
4.789	-0.012107
4.79	-0.013916
4.791	-0.012603
4.792	-0.00837
4.793	-0.003386
4.794	-0.000402
4.795	-0.001136
4.796	-0.005535
4.797	-0.011716
4.798	-0.016351
4.799	-0.016777
4.8	-0.013722
4.801	-0.01061
4.802	-0.009973
4.803	-0.011682
4.804	-0.01385
4.805	-0.014361
4.806	-0.01232
4.807	-0.008898
4.808	-0.006561
4.809	-0.007043
4.81	-0.009684
4.811	-0.011394
4.812	-0.008538
4.813	0.000259
4.814	0.012815
4.815	0.024764
4.816	0.031994
4.817	0.032488
4.818	0.02719
4.819	0.018955
4.82	0.010044
4.821	0.001202
4.822	-0.00719
4.823	-0.014236
4.824	-0.018597
4.825	-0.01932
4.826	-0.017092
4.827	-0.014309
4.828	-0.013313
4.829	-0.01447
4.83	-0.015921
4.831	-0.015118
4.832	-0.010952
4.833	-0.004812
4.834	0.000387
4.835	0.002196
4.836	-0.000109
4.837	-0.005125
4.838	-0.009353
4.839	-0.009175
4.84	-0.00437
4.841	0.001318
4.842	0.003774
4.843	0.002045
4.844	-0.001355
4.845	-0.003157
4.846	-0.002277
4.847	-0.000175
4.848	0.001203
4.849	0.00122
4.85	0.000388
4.851	-0.00074
4.852	-0.001753
4.853	-0.001125
4.854	0.005175
4.855	0.022569
4.856	0.052438
4.857	0.085708
4.858	0.104136
4.859	0.093318
4.86	0.057395
4.861	0.019126
4.862	0.002425
4.863	0.014313
4.864	0.043145
4.865	0.070895
4.866	0.085624
4.867	0.085388
4.868	0.074694
4.869	0.059475
4.87	0.044507
4.871	0.032627
4.872	0.024226
4.873	0.01779
4.874	0.011545
4.875	0.004388
4.876	-0.004197
4.877	-0.013507
4.878	-0.020521
4.879	-0.021494
4.88	-0.016088
4.881	-0.008562
4.882	-0.004181
4.883	-0.005127
4.884	-0.009603
4.885	-0.014115
4.886	-0.016514
4.887	-0.016984
4.888	-0.01654
4.889	-0.015421
4.89	-0.013218
4.891	-0.009931
4.892	-0.006283
4.893	-0.00309
4.894	-0.000981
4.895	-0.000723
4.896	-0.002868
4.897	-0.006609
4.898	-0.009354
4.899	-0.008551
4.9	-0.004621
4.901	-0.00099
4.902	-0.000791
4.903	-0.004261
4.904	-0.008931
4.905	-0.011558
4.906	-0.010174
4.907	-0.005145
4.908	0.001202
4.909	0.006121
4.91	0.008051
4.911	0.007085
4.912	0.004631
4.913	0.002715
4.914	0.002524
4.915	0.003308
4.916	0.003172
4.917	0.001045
4.918	-0.001826
4.919	-0.002579
4.92	0.000579
4.921	0.0069
4.922	0.014028
4.923	0.019359
4.924	0.020982
4.925	0.018529
4.926	0.013344
4.927	0.007575
4.928	0.002954
4.929	8.5e-05
4.93	-0.001572
4.931	-0.002976
4.932	-0.004448
4.933	-0.005533
4.934	-0.006131
4.935	-0.007178
4.936	-0.009902
4.937	-0.014311
4.938	-0.018015
4.939	-0.017693
4.94	-0.012894
4.941	-0.007206
4.942	-0.004883
4.943	-0.007161
4.944	-0.011733
4.945	-0.014881
4.946	-0.014084
4.947	-0.009429
4.948	-0.003209
4.949	0.001737
4.95	0.003603
4.951	0.002348
4.952	-0.000362
4.953	-0.002288
4.954	-0.002305
4.955	-0.001032
4.956	-0.000125
4.957	-0.001093
4.958	-0.004012
4.959	-0.007483
4.96	-0.009776
4.961	-0.008271
4.962	0.002042
4.963	0.025633
4.964	0.058735
4.965	0.085491
4.966	0.087001
4.967	0.059405
4.968	0.021884
4.969	0.002047
4.97	0.012937
4.971	0.045232
4.972	0.078556
4.973	0.097231
4.974	0.097373
4.975	0.083723
4.976	0.062818
4.977	0.039815
4.978	0.019592
4.979	0.006537
4.98	0.001481
4.981	0.000997
4.982	0.0007
4.983	-0.001772
4.984	-0.00616
4.985	-0.010437
4.986	-0.012607
4.987	-0.012313
4.988	-0.010798
4.989	-0.009781
4.99	-0.010429
4.991	-0.012716
4.992	-0.015369
4.993	-0.016476
4.994	-0.014567
4.995	-0.009928
4.996	-0.005075
4.997	-0.003058
4.998	-0.004723
4.999	-0.008335
5.0	-0.012008
5.001	-0.015208
5.002	-0.018023
5.003	-0.020318
5.004	-0.021282
5.005	-0.019302
5.006	-0.013138
5.007	-0.003992
5.008	0.003927
5.009	0.005844
5.01	4.5e-05
5.011	-0.010672
5.012	-0.020802
5.013	-0.025357
5.014	-0.022461
5.015	-0.014234
5.016	-0.005414
5.017	-7e-05
5.018	0.001324
5.019	0.001495
5.02	0.002974
5.021	0.005632
5.022	0.007209
5.023	0.005568
5.024	0.00082
5.025	-0.004415
5.026	-0.006868
5.027	-0.004704
5.028	0.001738
5.029	0.010457
5.03	0.018697
5.031	0.023832
5.032	0.024407
5.033	0.021014
5.034	0.015793
5.035	0.010417
5.036	0.004588
5.037	-0.002868
5.038	-0.011174
5.039	-0.016974
5.04	-0.017553
5.041	-0.013838
5.042	-0.009585
5.043	-0.008095
5.044	-0.009856
5.045	-0.012918
5.046	-0.015013
5.047	-0.015223
5.048	-0.014268
5.049	-0.013659
5.05	-0.014466
5.051	-0.01635
5.052	-0.017393
5.053	-0.01518
5.054	-0.008969
5.055	-0.000962
5.056	0.004989
5.057	0.00614
5.058	0.002916
5.059	-0.001635
5.06	-0.004821
5.061	-0.006286
5.062	-0.007177
5.063	-0.008477
5.064	-0.010457
5.065	-0.013073
5.066	-0.01605
5.067	-0.018266
5.068	-0.017073
5.069	-0.008031
5.07	0.013395
5.071	0.0463
5.072	0.078676
5.073	0.091235
5.074	0.073283
5.075	0.036064
5.076	0.005971
5.077	0.002674
5.078	0.025513
5.079	0.058678
5.08	0.084684
5.081	0.093973
5.082	0.086977
5.083	0.070275
5.084	0.051084
5.085	0.034219
5.086	0.02204
5.087	0.01497
5.088	0.011571
5.089	0.009285
5.09	0.005915
5.091	0.000757
5.092	-0.004997
5.093	-0.008848
5.094	-0.008753
5.095	-0.00502
5.096	-0.000627
5.097	0.000927
5.098	-0.001181
5.099	-0.004568
5.1	-0.00663
5.101	-0.006952
5.102	-0.006747
5.103	-0.007407
5.104	-0.009702
5.105	-0.013027
5.106	-0.015218
5.107	-0.014104
5.108	-0.009687
5.109	-0.004396
5.11	-0.001087
5.111	-0.000924
5.112	-0.002752
5.113	-0.004084
5.114	-0.003066
5.115	-9.6e-05
5.116	0.002152
5.117	0.000841
5.118	-0.004009
5.119	-0.009096
5.12	-0.010966
5.121	-0.008766
5.122	-0.004131
5.123	0.000254
5.124	0.002229
5.125	0.001455
5.126	-0.000722
5.127	-0.002664
5.128	-0.003558
5.129	-0.003614
5.13	-0.00368
5.131	-0.004269
5.132	-0.004508
5.133	-0.002096
5.134	0.005166
5.135	0.017072
5.136	0.029877
5.137	0.038138
5.138	0.038851
5.139	0.033423
5.14	0.024955
5.141	0.015127
5.142	0.004568
5.143	-0.005565
5.144	-0.013526
5.145	-0.017987
5.146	-0.018935
5.147	-0.017694
5.148	-0.01612
5.149	-0.015765
5.15	-0.01739
5.151	-0.020509
5.152	-0.023314
5.153	-0.02356
5.154	-0.019815
5.155	-0.012392
5.156	-0.003912
5.157	0.001454
5.158	0.000953
5.159	-0.004088
5.16	-0.009441
5.161	-0.01183
5.162	-0.011427
5.163	-0.010863
5.164	-0.011997
5.165	-0.014225
5.166	-0.015801
5.167	-0.015284
5.168	-0.011758
5.169	-0.005621
5.17	0.000379
5.171	0.002128
5.172	-0.002687
5.173	-0.011784
5.174	-0.019041
5.175	-0.018752
5.176	-0.008806
5.177	0.010597
5.178	0.038784
5.179	0.070835
5.18	0.092521
5.181	0.086897
5.182	0.051562
5.183	0.006317
5.184	-0.020526
5.185	-0.013621
5.186	0.020062
5.187	0.059011
5.188	0.083082
5.189	0.085222
5.19	0.071709
5.191	0.053525
5.192	0.038277
5.193	0.028512
5.194	0.023616
5.195	0.020884
5.196	0.016775
5.197	0.009922
5.198	0.002847
5.199	-0.000722
5.2	-0.000116
5.201	0.002125
5.202	0.004429
5.203	0.00822
5.204	0.014417
5.205	0.020154
5.206	0.021792
5.207	0.020075
5.208	0.019484
5.209	0.022811
5.21	0.028411
5.211	0.032646
5.212	0.033548
5.213	0.032196
5.214	0.031298
5.215	0.032244
5.216	0.033336
5.217	0.03132
5.218	0.025047
5.219	0.017236
5.22	0.012195
5.221	0.012296
5.222	0.016569
5.223	0.021669
5.224	0.024129
5.225	0.022456
5.226	0.017948
5.227	0.014008
5.228	0.014174
5.229	0.019598
5.23	0.0278
5.231	0.034038
5.232	0.034885
5.233	0.031413
5.234	0.028323
5.235	0.029226
5.236	0.033073
5.237	0.035421
5.238	0.033224
5.239	0.028048
5.24	0.024364
5.241	0.025849
5.242	0.033382
5.243	0.044674
5.244	0.055003
5.245	0.059492
5.246	0.05617
5.247	0.047439
5.248	0.038219
5.249	0.032002
5.25	0.02835
5.251	0.024222
5.252	0.017814
5.253	0.010868
5.254	0.007013
5.255	0.008361
5.256	0.013827
5.257	0.020021
5.258	0.023865
5.259	0.024627
5.26	0.023465
5.261	0.021891
5.262	0.020921
5.263	0.020561
5.264	0.019824
5.265	0.01792
5.266	0.015652
5.267	0.015241
5.268	0.018326
5.269	0.023927
5.27	0.028455
5.271	0.028074
5.272	0.021752
5.273	0.012303
5.274	0.004309
5.275	0.000807
5.276	0.001166
5.277	0.001729
5.278	-0.000736
5.279	-0.006343
5.28	-0.013069
5.281	-0.018511
5.282	-0.019364
5.283	-0.010834
5.284	0.010864
5.285	0.042779
5.286	0.070634
5.287	0.073925
5.288	0.043153
5.289	-0.006257
5.29	-0.042775
5.291	-0.04448
5.292	-0.014932
5.293	0.024249
5.294	0.052182
5.295	0.060641
5.296	0.052869
5.297	0.036396
5.298	0.018455
5.299	0.004636
5.3	-0.00243
5.301	-0.003859
5.302	-0.003109
5.303	-0.003886
5.304	-0.008619
5.305	-0.01713
5.306	-0.026464
5.307	-0.033091
5.308	-0.035838
5.309	-0.036646
5.31	-0.038619
5.311	-0.043317
5.312	-0.049546
5.313	-0.054286
5.314	-0.054634
5.315	-0.049714
5.316	-0.041736
5.317	-0.03474
5.318	-0.031197
5.319	-0.030064
5.32	-0.02864
5.321	-0.02549
5.322	-0.021461
5.323	-0.019003
5.324	-0.020388
5.325	-0.025757
5.326	-0.032949
5.327	-0.039259
5.328	-0.043052
5.329	-0.044277
5.33	-0.044374
5.331	-0.045429
5.332	-0.048502
5.333	-0.052318
5.334	-0.053752
5.335	-0.050445
5.336	-0.04347
5.337	-0.036807
5.338	-0.033613
5.339	-0.033602
5.34	-0.034391
5.341	-0.034151
5.342	-0.032723
5.343	-0.031537
5.344	-0.032485
5.345	-0.036166
5.346	-0.04121
5.347	-0.045106
5.348	-0.045627
5.349	-0.042185
5.35	-0.036387
5.351	-0.031268
5.352	-0.029559
5.353	-0.032033
5.354	-0.037054
5.355	-0.041778
5.356	-0.044275
5.357	-0.044738
5.358	-0.044566
5.359	-0.044641
5.36	-0.044901
5.361	-0.044914
5.362	-0.044404
5.363	-0.043638
5.364	-0.043339
5.365	-0.044159
5.366	-0.04629
5.367	-0.04923
5.368	-0.051872
5.369	-0.053278
5.37	-0.053574
5.371	-0.053885
5.372	-0.055122
5.373	-0.05658
5.374	-0.055976
5.375	-0.051587
5.376	-0.044639
5.377	-0.039067
5.378	-0.038018
5.379	-0.040849
5.38	-0.044354
5.381	-0.046
5.382	-0.045122
5.383	-0.042294
5.384	-0.038867
5.385	-0.036926
5.386	-0.038464
5.387	-0.043754
5.388	-0.050591
5.389	-0.054947
5.39	-0.051928
5.391	-0.036776
5.392	-0.007472
5.393	0.030417
5.394	0.06095
5.395	0.065081
5.396	0.037238
5.397	-0.00526
5.398	-0.033755
5.399	-0.031106
5.4	-0.003326
5.401	0.02905
5.402	0.048331
5.403	0.049366
5.404	0.037019
5.405	0.01889
5.406	0.001033
5.407	-0.012794
5.408	-0.021312
5.409	-0.025934
5.41	-0.029873
5.411	-0.036298
5.412	-0.046407
5.413	-0.058198
5.414	-0.067252
5.415	-0.069856
5.416	-0.06623
5.417	-0.060639
5.418	-0.057741
5.419	-0.059029
5.42	-0.062858
5.421	-0.066505
5.422	-0.067644
5.423	-0.065346
5.424	-0.060723
5.425	-0.056161
5.426	-0.053539
5.427	-0.05316
5.428	-0.053926
5.429	-0.054223
5.43	-0.053322
5.431	-0.052283
5.432	-0.05292
5.433	-0.055602
5.434	-0.058437
5.435	-0.058834
5.436	-0.056121
5.437	-0.052561
5.438	-0.051225
5.439	-0.053174
5.44	-0.057268
5.441	-0.061487
5.442	-0.063609
5.443	-0.06227
5.444	-0.058331
5.445	-0.054243
5.446	-0.051713
5.447	-0.050479
5.448	-0.049194
5.449	-0.047101
5.45	-0.045096
5.451	-0.045234
5.452	-0.048804
5.453	-0.054757
5.454	-0.059876
5.455	-0.060311
5.456	-0.053748
5.457	-0.041225
5.458	-0.026792
5.459	-0.015331
5.46	-0.010536
5.461	-0.013396
5.462	-0.021537
5.463	-0.031005
5.464	-0.039139
5.465	-0.045552
5.466	-0.051045
5.467	-0.055998
5.468	-0.059569
5.469	-0.060581
5.47	-0.059179
5.471	-0.057114
5.472	-0.056344
5.473	-0.057528
5.474	-0.059437
5.475	-0.059772
5.476	-0.057475
5.477	-0.054373
5.478	-0.053546
5.479	-0.056122
5.48	-0.060587
5.481	-0.064278
5.482	-0.064575
5.483	-0.060133
5.484	-0.05217
5.485	-0.044206
5.486	-0.039952
5.487	-0.04063
5.488	-0.043821
5.489	-0.045453
5.49	-0.043336
5.491	-0.03873
5.492	-0.034896
5.493	-0.034532
5.494	-0.037923
5.495	-0.042806
5.496	-0.046035
5.497	-0.045023
5.498	-0.036921
5.499	-0.018173
5.5	0.011229
5.501	0.04192
5.502	0.056847
5.503	0.043986
5.504	0.01007
5.505	-0.021129
5.506	-0.027599
5.507	-0.005948
5.508	0.029264
5.509	0.059071
5.51	0.072338
5.511	0.068594
5.512	0.053278
5.513	0.032504
5.514	0.011628
5.515	-0.004906
5.516	-0.015274
5.517	-0.021208
5.518	-0.025595
5.519	-0.029492
5.52	-0.032167
5.521	-0.03291
5.522	-0.031804
5.523	-0.029456
5.524	-0.026859
5.525	-0.025641
5.526	-0.027767
5.527	-0.034103
5.528	-0.042866
5.529	-0.049848
5.53	-0.051079
5.531	-0.045918
5.532	-0.037478
5.533	-0.029963
5.534	-0.025596
5.535	-0.023906
5.536	-0.023421
5.537	-0.023448
5.538	-0.024035
5.539	-0.024951
5.54	-0.025686
5.541	-0.026007
5.542	-0.025723
5.543	-0.024571
5.544	-0.022847
5.545	-0.021642
5.546	-0.022024
5.547	-0.024109
5.548	-0.027051
5.549	-0.029713
5.55	-0.031268
5.551	-0.031608
5.552	-0.031355
5.553	-0.03111
5.554	-0.030723
5.555	-0.029499
5.556	-0.026987
5.557	-0.023588
5.558	-0.020406
5.559	-0.018742
5.56	-0.019885
5.561	-0.024079
5.562	-0.028922
5.563	-0.030116
5.564	-0.024831
5.565	-0.014319
5.566	-0.003256
5.567	0.003709
5.568	0.00523
5.569	0.003445
5.57	0.001141
5.571	-0.001106
5.572	-0.004962
5.573	-0.011778
5.574	-0.020634
5.575	-0.029035
5.576	-0.035001
5.577	-0.038378
5.578	-0.040058
5.579	-0.040537
5.58	-0.040238
5.581	-0.039987
5.582	-0.039712
5.583	-0.037932
5.584	-0.033772
5.585	-0.028782
5.586	-0.025877
5.587	-0.026364
5.588	-0.02835
5.589	-0.028318
5.59	-0.024393
5.591	-0.018225
5.592	-0.013658
5.593	-0.01356
5.594	-0.017672
5.595	-0.022745
5.596	-0.024805
5.597	-0.022293
5.598	-0.017012
5.599	-0.012157
5.6	-0.010404
5.601	-0.013114
5.602	-0.019536
5.603	-0.026709
5.604	-0.030685
5.605	-0.027368
5.606	-0.012403
5.607	0.016764
5.608	0.054907
5.609	0.085519
5.61	0.089128
5.611	0.06099
5.612	0.020006
5.613	-0.004737
5.614	0.00241
5.615	0.033887
5.616	0.068641
5.617	0.088321
5.618	0.087242
5.619	0.071496
5.62	0.05076
5.621	0.031539
5.622	0.016601
5.623	0.006973
5.624	0.00217
5.625	-0.000294
5.626	-0.003833
5.627	-0.010651
5.628	-0.020025
5.629	-0.028215
5.63	-0.030887
5.631	-0.026607
5.632	-0.018206
5.633	-0.010751
5.634	-0.00784
5.635	-0.009261
5.636	-0.012016
5.637	-0.013201
5.638	-0.011655
5.639	-0.007942
5.64	-0.00403
5.641	-0.002126
5.642	-0.002652
5.643	-0.004084
5.644	-0.004963
5.645	-0.005201
5.646	-0.005774
5.647	-0.007866
5.648	-0.011899
5.649	-0.016761
5.65	-0.020145
5.651	-0.020278
5.652	-0.01761
5.653	-0.014624
5.654	-0.013591
5.655	-0.014511
5.656	-0.015485
5.657	-0.014697
5.658	-0.011577
5.659	-0.006782
5.66	-0.002132
5.661	0.000177
5.662	-0.000582
5.663	-0.003067
5.664	-0.00528
5.665	-0.006333
5.666	-0.007276
5.667	-0.010122
5.668	-0.015412
5.669	-0.020757
5.67	-0.022092
5.671	-0.016627
5.672	-0.004979
5.673	0.009147
5.674	0.021182
5.675	0.02781
5.676	0.027809
5.677	0.021989
5.678	0.012948
5.679	0.004223
5.68	-0.001911
5.681	-0.00572
5.682	-0.008465
5.683	-0.010443
5.684	-0.011042
5.685	-0.010047
5.686	-0.008497
5.687	-0.007992
5.688	-0.009017
5.689	-0.010204
5.69	-0.009639
5.691	-0.007045
5.692	-0.004547
5.693	-0.005027
5.694	-0.009491
5.695	-0.015915
5.696	-0.020543
5.697	-0.020461
5.698	-0.015402
5.699	-0.007943
5.7	-0.00252
5.701	-0.003059
5.702	-0.009899
5.703	-0.019069
5.704	-0.02532
5.705	-0.026312
5.706	-0.024098
5.707	-0.022736
5.708	-0.024751
5.709	-0.029587
5.71	-0.034558
5.711	-0.036701
5.712	-0.033533
5.713	-0.022132
5.714	0.000806
5.715	0.034613
5.716	0.068439
5.717	0.082923
5.718	0.065492
5.719	0.026079
5.72	-0.007789
5.721	-0.013908
5.722	0.008642
5.723	0.043766
5.724	0.072804
5.725	0.084784
5.726	0.078429
5.727	0.059237
5.728	0.035361
5.729	0.014328
5.73	0.000888
5.731	-0.004329
5.732	-0.00463
5.733	-0.004769
5.734	-0.007657
5.735	-0.01285
5.736	-0.017676
5.737	-0.019671
5.738	-0.018092
5.739	-0.014106
5.74	-0.010797
5.741	-0.011929
5.742	-0.018617
5.743	-0.027504
5.744	-0.03332
5.745	-0.032954
5.746	-0.026836
5.747	-0.017718
5.748	-0.009098
5.749	-0.00382
5.75	-0.002761
5.751	-0.004817
5.752	-0.008437
5.753	-0.01289
5.754	-0.017999
5.755	-0.023114
5.756	-0.026876
5.757	-0.028093
5.758	-0.026379
5.759	-0.02227
5.76	-0.01777
5.761	-0.015986
5.762	-0.018603
5.763	-0.02401
5.764	-0.028652
5.765	-0.02992
5.766	-0.027825
5.767	-0.024601
5.768	-0.022758
5.769	-0.02307
5.77	-0.02436
5.771	-0.025085
5.772	-0.024722
5.773	-0.023872
5.774	-0.023571
5.775	-0.0244
5.776	-0.02607
5.777	-0.027608
5.778	-0.027236
5.779	-0.022686
5.78	-0.013504
5.781	-0.002759
5.782	0.005033
5.783	0.007285
5.784	0.004363
5.785	-0.001412
5.786	-0.007462
5.787	-0.012348
5.788	-0.015895
5.789	-0.018357
5.79	-0.019906
5.791	-0.020647
5.792	-0.020637
5.793	-0.020022
5.794	-0.019183
5.795	-0.01824
5.796	-0.016663
5.797	-0.013854
5.798	-0.009768
5.799	-0.005154
5.8	-0.002028
5.801	-0.002975
5.802	-0.008501
5.803	-0.015765
5.804	-0.020596
5.805	-0.020487
5.806	-0.016236
5.807	-0.011334
5.808	-0.009351
5.809	-0.011469
5.81	-0.016104
5.811	-0.020311
5.812	-0.021683
5.813	-0.019669
5.814	-0.015579
5.815	-0.011578
5.816	-0.009863
5.817	-0.012083
5.818	-0.017777
5.819	-0.022955
5.82	-0.02144
5.821	-0.007778
5.822	0.02009
5.823	0.056684
5.824	0.086349
5.825	0.090532
5.826	0.06402
5.827	0.023858
5.828	-0.00228
5.829	0.001771
5.83	0.030295
5.831	0.063964
5.832	0.084907
5.833	0.085848
5.834	0.070391
5.835	0.047827
5.836	0.026762
5.837	0.011431
5.838	0.002337
5.839	-0.001581
5.84	-0.002756
5.841	-0.00505
5.842	-0.01129
5.843	-0.020614
5.844	-0.028855
5.845	-0.031555
5.846	-0.027243
5.847	-0.018456
5.848	-0.009782
5.849	-0.004793
5.85	-0.004135
5.851	-0.005872
5.852	-0.00765
5.853	-0.008427
5.854	-0.008218
5.855	-0.007329
5.856	-0.00644
5.857	-0.006425
5.858	-0.007153
5.859	-0.007143
5.86	-0.005525
5.861	-0.003639
5.862	-0.003564
5.863	-0.005607
5.864	-0.007893
5.865	-0.008288
5.866	-0.006662
5.867	-0.005023
5.868	-0.00529
5.869	-0.007254
5.87	-0.008788
5.871	-0.007822
5.872	-0.00415
5.873	0.000704
5.874	0.005057
5.875	0.007874
5.876	0.008527
5.877	0.0069
5.878	0.004101
5.879	0.002216
5.88	0.002116
5.881	0.002111
5.882	6.6e-05
5.883	-0.003757
5.884	-0.006631
5.885	-0.005581
5.886	0.000491
5.887	0.010167
5.888	0.020194
5.889	0.026882
5.89	0.027723
5.891	0.02259
5.892	0.013899
5.893	0.005349
5.894	-0.000492
5.895	-0.003789
5.896	-0.006386
5.897	-0.009459
5.898	-0.012203
5.899	-0.012619
5.9	-0.010184
5.901	-0.007321
5.902	-0.007156
5.903	-0.010199
5.904	-0.01372
5.905	-0.014125
5.906	-0.010072
5.907	-0.003652
5.908	0.001272
5.909	0.002015
5.91	-0.001104
5.911	-0.005248
5.912	-0.006966
5.913	-0.004103
5.914	0.002803
5.915	0.010571
5.916	0.015403
5.917	0.015285
5.918	0.011401
5.919	0.007688
5.92	0.007615
5.921	0.011052
5.922	0.015067
5.923	0.017023
5.924	0.016208
5.925	0.013431
5.926	0.010334
5.927	0.009614
5.928	0.015791
5.929	0.034404
5.93	0.066933
5.931	0.103592
5.932	0.123899
5.933	0.11138
5.934	0.071038
5.935	0.029395
5.936	0.013798
5.937	0.031405
5.938	0.067728
5.939	0.101664
5.94	0.119485
5.941	0.118511
5.942	0.1038
5.943	0.083186
5.944	0.063492
5.945	0.048945
5.946	0.040861
5.947	0.03761
5.948	0.03544
5.949	0.030804
5.95	0.022752
5.951	0.013415
5.952	0.006364
5.953	0.003966
5.954	0.005648
5.955	0.008314
5.956	0.008217
5.957	0.003485
5.958	-0.003653
5.959	-0.007632
5.96	-0.004364
5.961	0.004845
5.962	0.015128
5.963	0.022551
5.964	0.02613
5.965	0.027073
5.966	0.026898
5.967	0.026024
5.968	0.02418
5.969	0.021714
5.97	0.019669
5.971	0.019042
5.972	0.020658
5.973	0.025133
5.974	0.032177
5.975	0.039857
5.976	0.044989
5.977	0.045379
5.978	0.042248
5.979	0.039532
5.98	0.039801
5.981	0.041729
5.982	0.042568
5.983	0.041676
5.984	0.040638
5.985	0.041254
5.986	0.044038
5.987	0.047963
5.988	0.051215
5.989	0.052354
5.99	0.051433
5.991	0.050498
5.992	0.052614
5.993	0.059649
5.994	0.070806
5.995	0.082934
5.996	0.091784
5.997	0.093688
5.998	0.087842
5.999	0.077494
6.0	0.067587
6.001	0.060845
6.002	0.056684
6.003	0.053084
6.004	0.048972
6.005	0.045199
6.006	0.043192
6.007	0.043022
6.008	0.043411
6.009	0.043219
6.01	0.04246
6.011	0.042216
6.012	0.043702
6.013	0.047122
6.014	0.051294
6.015	0.054075
6.016	0.05321
6.017	0.047769
6.018	0.039944
6.019	0.034885
6.02	0.036683
6.021	0.044185
6.022	0.051875
6.023	0.054642
6.024	0.051513
6.025	0.045445
6.026	0.040207
6.027	0.037797
6.028	0.038112
6.029	0.039766
6.03	0.041068
6.031	0.040875
6.032	0.038965
6.033	0.036265
6.034	0.035517
6.035	0.041739
6.036	0.060523
6.037	0.092617
6.038	0.127747
6.039	0.146093
6.04	0.132092
6.041	0.090892
6.042	0.048666
6.043	0.032323
6.044	0.048576
6.045	0.082546
6.046	0.113043
6.047	0.12731
6.048	0.124302
6.049	0.109298
6.05	0.088481
6.051	0.067007
6.052	0.048639
6.053	0.035554
6.054	0.028371
6.055	0.026014
6.056	0.025727
6.057	0.024409
6.058	0.021272
6.059	0.018948
6.06	0.020404
6.061	0.024955
6.062	0.028638
6.063	0.027946
6.064	0.022392
6.065	0.014196
6.066	0.006429
6.067	0.001279
6.068	-0.000753
6.069	-0.000597
6.07	0.0002
6.071	0.000253
6.072	-0.001082
6.073	-0.003374
6.074	-0.005515
6.075	-0.006865
6.076	-0.007931
6.077	-0.009724
6.078	-0.011942
6.079	-0.012077
6.08	-0.007962
6.081	-0.001045
6.082	0.004528
6.083	0.005595
6.084	0.002016
6.085	-0.003738
6.086	-0.008105
6.087	-0.00835
6.088	-0.004209
6.089	0.001775
6.09	0.005607
6.091	0.004177
6.092	-0.002631
6.093	-0.0116
6.094	-0.018392
6.095	-0.020506
6.096	-0.018462
6.097	-0.014849
6.098	-0.011997
6.099	-0.010001
6.1	-0.007316
6.101	-0.002732
6.102	0.004127
6.103	0.012921
6.104	0.021901
6.105	0.027994
6.106	0.028622
6.107	0.02358
6.108	0.015235
6.109	0.006848
6.11	0.00045
6.111	-0.003925
6.112	-0.007176
6.113	-0.009739
6.114	-0.011458
6.115	-0.012436
6.116	-0.013677
6.117	-0.016768
6.118	-0.02209
6.119	-0.027188
6.12	-0.028575
6.121	-0.025419
6.122	-0.020062
6.123	-0.015541
6.124	-0.013739
6.125	-0.014865
6.126	-0.017541
6.127	-0.019517
6.128	-0.018895
6.129	-0.015418
6.13	-0.011059
6.131	-0.008848
6.132	-0.010389
6.133	-0.014609
6.134	-0.018863
6.135	-0.020789
6.136	-0.019568
6.137	-0.016487
6.138	-0.014042
6.139	-0.013857
6.14	-0.015947
6.141	-0.01939
6.142	-0.021706
6.143	-0.017839
6.144	-0.001695
6.145	0.028682
6.146	0.064559
6.147	0.08647
6.148	0.07737
6.149	0.040047
6.15	-0.001189
6.151	-0.019686
6.152	-0.00748
6.153	0.021913
6.154	0.047924
6.155	0.058121
6.156	0.051949
6.157	0.035081
6.158	0.01393
6.159	-0.005637
6.16	-0.019164
6.161	-0.025382
6.162	-0.025934
6.163	-0.023561
6.164	-0.020891
6.165	-0.019516
6.166	-0.019301
6.167	-0.01866
6.168	-0.015713
6.169	-0.009996
6.17	-0.003687
6.171	-0.000664
6.172	-0.003575
6.173	-0.011343
6.174	-0.019591
6.175	-0.024066
6.176	-0.023939
6.177	-0.021794
6.178	-0.020389
6.179	-0.019739
6.18	-0.01813
6.181	-0.01525
6.182	-0.012826
6.183	-0.012803
6.184	-0.015739
6.185	-0.020308
6.186	-0.023859
6.187	-0.023927
6.188	-0.020079
6.189	-0.014599
6.19	-0.011062
6.191	-0.011925
6.192	-0.017116
6.193	-0.024083
6.194	-0.028875
6.195	-0.028367
6.196	-0.02275
6.197	-0.015742
6.198	-0.01142
6.199	-0.010659
6.2	-0.011434
6.201	-0.012015
6.202	-0.012529
6.203	-0.014033
6.204	-0.017168
6.205	-0.021673
6.206	-0.026648
6.207	-0.030729
6.208	-0.032058
6.209	-0.028806
6.21	-0.02046
6.211	-0.008947
6.212	0.001725
6.213	0.00778
6.214	0.008116
6.215	0.004291
6.216	-0.001757
6.217	-0.009438
6.218	-0.018506
6.219	-0.026987
6.22	-0.031995
6.221	-0.032666
6.222	-0.030678
6.223	-0.028195
6.224	-0.026448
6.225	-0.025866
6.226	-0.026433
6.227	-0.02737
6.228	-0.027106
6.229	-0.02453
6.23	-0.020536
6.231	-0.017966
6.232	-0.019349
6.233	-0.024179
6.234	-0.028739
6.235	-0.02899
6.236	-0.023667
6.237	-0.015315
6.238	-0.008443
6.239	-0.006071
6.24	-0.008283
6.241	-0.013309
6.242	-0.01851
6.243	-0.021282
6.244	-0.020678
6.245	-0.018167
6.246	-0.016291
6.247	-0.01654
6.248	-0.018573
6.249	-0.02075
6.25	-0.020173
6.251	-0.012162
6.252	0.008238
6.253	0.040725
6.254	0.073795
6.255	0.087824
6.256	0.070513
6.257	0.031046
6.258	-0.004421
6.259	-0.013549
6.26	0.00543
6.261	0.03593
6.262	0.059125
6.263	0.06666
6.264	0.060667
6.265	0.046932
6.266	0.03026
6.267	0.014171
6.268	0.001988
6.269	-0.003403
6.27	-0.001439
6.271	0.00479
6.272	0.01021
6.273	0.011431
6.274	0.008976
6.275	0.006276
6.276	0.006215
6.277	0.008179
6.278	0.008967
6.279	0.006573
6.28	0.00168
6.281	-0.003853
6.282	-0.007908
6.283	-0.008552
6.284	-0.005517
6.285	-0.000611
6.286	0.00427
6.287	0.008825
6.288	0.013636
6.289	0.018475
6.29	0.021765
6.291	0.021496
6.292	0.016696
6.293	0.00839
6.294	-0.00042
6.295	-0.005942
6.296	-0.006002
6.297	-0.0019
6.298	0.002871
6.299	0.005846
6.3	0.006711
6.301	0.006309
6.302	0.00613
6.303	0.007593
6.304	0.010552
6.305	0.013206
6.306	0.013663
6.307	0.011347
6.308	0.007507
6.309	0.004612
6.31	0.004526
6.311	0.006785
6.312	0.008836
6.313	0.00842
6.314	0.006008
6.315	0.004709
6.316	0.007382
6.317	0.013995
6.318	0.022303
6.319	0.030365
6.32	0.03684
6.321	0.039943
6.322	0.03853
6.323	0.033506
6.324	0.027037
6.325	0.020936
6.326	0.015734
6.327	0.010983
6.328	0.006603
6.329	0.003537
6.33	0.00254
6.331	0.002719
6.332	0.002029
6.333	-0.000761
6.334	-0.004679
6.335	-0.007038
6.336	-0.005697
6.337	-0.001316
6.338	0.002967
6.339	0.004354
6.34	0.002275
6.341	-0.001814
6.342	-0.005101
6.343	-0.004851
6.344	-0.000473
6.345	0.005871
6.346	0.010763
6.347	0.01208
6.348	0.010633
6.349	0.009083
6.35	0.009266
6.351	0.010715
6.352	0.011284
6.353	0.009075
6.354	0.004205
6.355	-0.001209
6.356	-0.004837
6.357	-0.005362
6.358	-0.000875
6.359	0.013089
6.36	0.039627
6.361	0.072103
6.362	0.093023
6.363	0.086798
6.364	0.05613
6.365	0.023061
6.366	0.010793
6.367	0.025312
6.368	0.054577
6.369	0.08155
6.37	0.095836
6.371	0.095875
6.372	0.084809
6.373	0.066866
6.374	0.046892
6.375	0.030137
6.376	0.019953
6.377	0.015626
6.378	0.013549
6.379	0.010865
6.38	0.007103
6.381	0.003048
6.382	-1.2e-05
6.383	-0.000641
6.384	0.001355
6.385	0.004026
6.386	0.004644
6.387	0.002216
6.388	-0.001606
6.389	-0.004074
6.39	-0.003654
6.391	-0.001344
6.392	-0.000136
6.393	-0.002478
6.394	-0.007733
6.395	-0.012498
6.396	-0.013662
6.397	-0.011148
6.398	-0.007427
6.399	-0.004545
6.4	-0.002869
6.401	-0.002196
6.402	-0.001883
6.403	-0.000434
6.404	0.003005
6.405	0.006909
6.406	0.008367
6.407	0.006009
6.408	0.001525
6.409	-0.001634
6.41	-0.000956
6.411	0.003113
6.412	0.007348
6.413	0.008395
6.414	0.005686
6.415	0.00158
6.416	-0.001317
6.417	-0.002697
6.418	-0.003999
6.419	-0.005678
6.42	-0.006664
6.421	-0.006211
6.422	-0.004044
6.423	0.000871
6.424	0.00967
6.425	0.02169
6.426	0.034035
6.427	0.042926
6.428	0.045587
6.429	0.041734
6.43	0.033485
6.431	0.023445
6.432	0.013288
6.433	0.0041
6.434	-0.003072
6.435	-0.007156
6.436	-0.007295
6.437	-0.003862
6.438	0.001071
6.439	0.00518
6.44	0.007084
6.441	0.006322
6.442	0.003862
6.443	0.002062
6.444	0.002585
6.445	0.004698
6.446	0.006129
6.447	0.005219
6.448	0.002187
6.449	-0.001126
6.45	-0.002668
6.451	-0.001816
6.452	0.000245
6.453	0.001561
6.454	0.000818
6.455	-0.001507
6.456	-0.003437
6.457	-0.003718
6.458	-0.003073
6.459	-0.002792
6.46	-0.003768
6.461	-0.006839
6.462	-0.01178
6.463	-0.016295
6.464	-0.017092
6.465	-0.011014
6.466	0.004877
6.467	0.031864
6.468	0.065228
6.469	0.091226
6.47	0.093589
6.471	0.068804
6.472	0.033891
6.473	0.014027
6.474	0.021916
6.475	0.050448
6.476	0.081968
6.477	0.101207
6.478	0.102205
6.479	0.088283
6.48	0.067011
6.481	0.044772
6.482	0.025726
6.483	0.012854
6.484	0.006993
6.485	0.00581
6.486	0.005458
6.487	0.003451
6.488	-3.9e-05
6.489	-0.003106
6.49	-0.003971
6.491	-0.002475
6.492	-0.000368
6.493	-0.00018
6.494	-0.003097
6.495	-0.007437
6.496	-0.009992
6.497	-0.009265
6.498	-0.00636
6.499	-0.002786
6.5	0.000575
6.501	0.002616
6.502	0.002618
6.503	0.001477
6.504	0.000893
6.505	0.001384
6.506	0.001447
6.507	-0.001142
6.508	-0.00682
6.509	-0.012938
6.51	-0.015389
6.511	-0.012108
6.512	-0.00524
6.513	0.000309
6.514	0.001092
6.515	-0.00216
6.516	-0.006337
6.517	-0.009535
6.518	-0.011651
6.519	-0.012321
6.52	-0.010931
6.521	-0.008484
6.522	-0.00684
6.523	-0.006405
6.524	-0.006132
6.525	-0.005339
6.526	-0.004781
6.527	-0.005881
6.528	-0.009049
6.529	-0.012665
6.53	-0.013676
6.531	-0.009629
6.532	-0.0007
6.533	0.010124
6.534	0.018873
6.535	0.022807
6.536	0.021539
6.537	0.016525
6.538	0.009832
6.539	0.003376
6.54	-0.002059
6.541	-0.007393
6.542	-0.013473
6.543	-0.019171
6.544	-0.022378
6.545	-0.022419
6.546	-0.020877
6.547	-0.020002
6.548	-0.02061
6.549	-0.021637
6.55	-0.02141
6.551	-0.019518
6.552	-0.017778
6.553	-0.018767
6.554	-0.023119
6.555	-0.028762
6.556	-0.032714
6.557	-0.033376
6.558	-0.031079
6.559	-0.026858
6.56	-0.022078
6.561	-0.018881
6.562	-0.018663
6.563	-0.020042
6.564	-0.019901
6.565	-0.016769
6.566	-0.012693
6.567	-0.011445
6.568	-0.014934
6.569	-0.021395
6.57	-0.026817
6.571	-0.027701
6.572	-0.021879
6.573	-0.007037
6.574	0.018938
6.575	0.053189
6.576	0.083186
6.577	0.09072
6.578	0.067197
6.579	0.026443
6.58	-0.00383
6.581	-0.005701
6.582	0.016772
6.583	0.046271
6.584	0.067191
6.585	0.072959
6.586	0.065055
6.587	0.049042
6.588	0.03098
6.589	0.015346
6.59	0.004403
6.591	-0.001916
6.592	-0.005674
6.593	-0.009588
6.594	-0.015284
6.595	-0.022076
6.596	-0.027254
6.597	-0.028309
6.598	-0.025005
6.599	-0.019182
6.6	-0.013905
6.601	-0.012527
6.602	-0.016181
6.603	-0.022189
6.604	-0.02637
6.605	-0.026691
6.606	-0.02437
6.607	-0.022177
6.608	-0.021929
6.609	-0.023015
6.61	-0.023126
6.611	-0.020679
6.612	-0.016501
6.613	-0.013195
6.614	-0.01282
6.615	-0.014935
6.616	-0.017179
6.617	-0.017858
6.618	-0.017116
6.619	-0.01567
6.62	-0.014424
6.621	-0.015118
6.622	-0.018599
6.623	-0.022746
6.624	-0.024196
6.625	-0.021618
6.626	-0.016548
6.627	-0.011903
6.628	-0.009974
6.629	-0.011017
6.63	-0.013346
6.631	-0.015034
6.632	-0.015689
6.633	-0.016741
6.634	-0.019894
6.635	-0.024945
6.636	-0.029268
6.637	-0.029748
6.638	-0.024804
6.639	-0.014757
6.64	-0.002017
6.641	0.009039
6.642	0.014484
6.643	0.013376
6.644	0.007578
6.645	-4e-06
6.646	-0.007228
6.647	-0.01359
6.648	-0.019421
6.649	-0.024516
6.65	-0.027869
6.651	-0.028509
6.652	-0.026606
6.653	-0.023931
6.654	-0.022765
6.655	-0.023973
6.656	-0.02655
6.657	-0.029194
6.658	-0.031448
6.659	-0.032963
6.66	-0.033491
6.661	-0.034042
6.662	-0.035818
6.663	-0.038014
6.664	-0.038034
6.665	-0.033916
6.666	-0.026757
6.667	-0.020588
6.668	-0.018968
6.669	-0.021714
6.67	-0.025375
6.671	-0.026512
6.672	-0.024303
6.673	-0.020597
6.674	-0.017966
6.675	-0.017617
6.676	-0.018937
6.677	-0.020832
6.678	-0.022524
6.679	-0.02217
6.68	-0.016003
6.681	-0.000188
6.682	0.025598
6.683	0.053733
6.684	0.068454
6.685	0.056635
6.686	0.022811
6.687	-0.009869
6.688	-0.017948
6.689	0.003145
6.69	0.038127
6.691	0.066593
6.692	0.07674
6.693	0.06825
6.694	0.04786
6.695	0.024274
6.696	0.004562
6.697	-0.007962
6.698	-0.013565
6.699	-0.014102
6.7	-0.01222
6.701	-0.011676
6.702	-0.015419
6.703	-0.022717
6.704	-0.029556
6.705	-0.032466
6.706	-0.031848
6.707	-0.03125
6.708	-0.033459
6.709	-0.037656
6.71	-0.040348
6.711	-0.03868
6.712	-0.032923
6.713	-0.026129
6.714	-0.021502
6.715	-0.020224
6.716	-0.021532
6.717	-0.024157
6.718	-0.026972
6.719	-0.028561
6.72	-0.028202
6.721	-0.027534
6.722	-0.028849
6.723	-0.031829
6.724	-0.033769
6.725	-0.032742
6.726	-0.029579
6.727	-0.026791
6.728	-0.02602
6.729	-0.026807
6.73	-0.02746
6.731	-0.026769
6.732	-0.025094
6.733	-0.023959
6.734	-0.024667
6.735	-0.027324
6.736	-0.03082
6.737	-0.033711
6.738	-0.03507
6.739	-0.034504
6.74	-0.032668
6.741	-0.031728
6.742	-0.033246
6.743	-0.035701
6.744	-0.035432
6.745	-0.029822
6.746	-0.019365
6.747	-0.007064
6.748	0.003743
6.749	0.010633
6.75	0.011881
6.751	0.006775
6.752	-0.002921
6.753	-0.013128
6.754	-0.02046
6.755	-0.0246
6.756	-0.027516
6.757	-0.031319
6.758	-0.03631
6.759	-0.040149
6.76	-0.040292
6.761	-0.0376
6.762	-0.035475
6.763	-0.035699
6.764	-0.036805
6.765	-0.036306
6.766	-0.033646
6.767	-0.03103
6.768	-0.031505
6.769	-0.035996
6.77	-0.042219
6.771	-0.046537
6.772	-0.046481
6.773	-0.04204
6.774	-0.035823
6.775	-0.031575
6.776	-0.031449
6.777	-0.034725
6.778	-0.038709
6.779	-0.040283
6.78	-0.038213
6.781	-0.034827
6.782	-0.033877
6.783	-0.036805
6.784	-0.042034
6.785	-0.046644
6.786	-0.047551
6.787	-0.041462
6.788	-0.024924
6.789	0.003247
6.79	0.036788
6.791	0.059869
6.792	0.056044
6.793	0.024495
6.794	-0.014234
6.795	-0.033009
6.796	-0.019831
6.797	0.014651
6.798	0.048886
6.799	0.067625
6.8	0.068373
6.801	0.05602
6.802	0.036679
6.803	0.016047
6.804	-0.00095
6.805	-0.011568
6.806	-0.016676
6.807	-0.020325
6.808	-0.026683
6.809	-0.036474
6.81	-0.046323
6.811	-0.051611
6.812	-0.050114
6.813	-0.043727
6.814	-0.037078
6.815	-0.034101
6.816	-0.035774
6.817	-0.040558
6.818	-0.045443
6.819	-0.046553
6.82	-0.041706
6.821	-0.033335
6.822	-0.026659
6.823	-0.024916
6.824	-0.027399
6.825	-0.031079
6.826	-0.033374
6.827	-0.034015
6.828	-0.034892
6.829	-0.038023
6.83	-0.043245
6.831	-0.047903
6.832	-0.049059
6.833	-0.046127
6.834	-0.041096
6.835	-0.036393
6.836	-0.03329
6.837	-0.031981
6.838	-0.031616
6.839	-0.030007
6.84	-0.02543
6.841	-0.019271
6.842	-0.015116
6.843	-0.015275
6.844	-0.019018
6.845	-0.02367
6.846	-0.027174
6.847	-0.029856
6.848	-0.033618
6.849	-0.039504
6.85	-0.046043
6.851	-0.049831
6.852	-0.047792
6.853	-0.039195
6.854	-0.025868
6.855	-0.011258
6.856	0.000402
6.857	0.005149
6.858	0.001538
6.859	-0.007339
6.86	-0.015879
6.861	-0.021055
6.862	-0.024119
6.863	-0.027591
6.864	-0.032051
6.865	-0.035886
6.866	-0.037612
6.867	-0.03786
6.868	-0.038685
6.869	-0.041234
6.87	-0.044455
6.871	-0.04616
6.872	-0.045092
6.873	-0.041829
6.874	-0.038129
6.875	-0.03583
6.876	-0.035802
6.877	-0.037359
6.878	-0.038557
6.879	-0.037076
6.88	-0.032267
6.881	-0.026881
6.882	-0.025026
6.883	-0.0282
6.884	-0.034067
6.885	-0.03855
6.886	-0.038857
6.887	-0.035092
6.888	-0.029741
6.889	-0.02595
6.89	-0.025727
6.891	-0.029059
6.892	-0.034336
6.893	-0.039015
6.894	-0.039469
6.895	-0.030759
6.896	-0.008702
6.897	0.024105
6.898	0.053653
6.899	0.060983
6.9	0.038099
6.901	-0.002046
6.902	-0.033367
6.903	-0.036403
6.904	-0.011617
6.905	0.024058
6.906	0.050896
6.907	0.05811
6.908	0.046872
6.909	0.025797
6.91	0.004384
6.911	-0.011371
6.912	-0.020003
6.913	-0.023112
6.914	-0.023473
6.915	-0.02402
6.916	-0.027128
6.917	-0.033689
6.918	-0.041949
6.919	-0.04734
6.92	-0.046073
6.921	-0.039824
6.922	-0.034521
6.923	-0.03436
6.924	-0.038688
6.925	-0.043893
6.926	-0.046451
6.927	-0.044573
6.928	-0.038888
6.929	-0.032236
6.93	-0.028059
6.931	-0.028237
6.932	-0.031972
6.933	-0.036547
6.934	-0.039484
6.935	-0.040133
6.936	-0.039438
6.937	-0.038776
6.938	-0.038566
6.939	-0.0373
6.94	-0.033392
6.941	-0.028288
6.942	-0.025526
6.943	-0.026803
6.944	-0.030732
6.945	-0.034829
6.946	-0.037474
6.947	-0.038496
6.948	-0.038725
6.949	-0.038962
6.95	-0.039302
6.951	-0.039301
6.952	-0.038243
6.953	-0.035319
6.954	-0.030391
6.955	-0.024859
6.956	-0.021263
6.957	-0.021599
6.958	-0.025258
6.959	-0.028156
6.96	-0.025517
6.961	-0.016388
6.962	-0.003986
6.963	0.007593
6.964	0.01536
6.965	0.01792
6.966	0.015694
6.967	0.010014
6.968	0.001712
6.969	-0.008625
6.97	-0.019265
6.971	-0.027256
6.972	-0.030115
6.973	-0.027653
6.974	-0.02225
6.975	-0.017224
6.976	-0.014605
6.977	-0.014269
6.978	-0.014772
6.979	-0.014585
6.98	-0.013237
6.981	-0.011691
6.982	-0.011324
6.983	-0.013416
6.984	-0.019231
6.985	-0.028205
6.986	-0.036018
6.987	-0.036804
6.988	-0.02851
6.989	-0.015667
6.99	-0.006071
6.991	-0.004391
6.992	-0.009072
6.993	-0.014869
6.994	-0.01761
6.995	-0.016987
6.996	-0.015805
6.997	-0.016924
6.998	-0.020448
6.999	-0.0235
7.0	-0.023242
7.001	-0.018905
7.002	-0.008526
7.003	0.013738
7.004	0.051643
7.005	0.096144
7.006	0.123905
7.007	0.114311
7.008	0.072071
7.009	0.027992
7.01	0.013199
7.011	0.034614
7.012	0.075027
7.013	0.111067
7.014	0.129008
7.015	0.128294
7.016	0.115719
7.017	0.098166
7.018	0.079855
7.019	0.064034
7.02	0.053356
7.021	0.047286
7.022	0.042047
7.023	0.034476
7.024	0.025189
7.025	0.018098
7.026	0.017111
7.027	0.023033
7.028	0.033064
7.029	0.042473
7.03	0.04715
7.031	0.045914
7.032	0.040862
7.033	0.035365
7.034	0.031975
7.035	0.031587
7.036	0.033213
7.037	0.034522
7.038	0.034034
7.039	0.033269
7.04	0.035122
7.041	0.039724
7.042	0.043813
7.043	0.04432
7.044	0.04127
7.045	0.037313
7.046	0.035214
7.047	0.035724
7.048	0.037231
7.049	0.037282
7.05	0.034724
7.051	0.03055
7.052	0.026939
7.053	0.025797
7.054	0.027905
7.055	0.03237
7.056	0.036437
7.057	0.036676
7.058	0.031869
7.059	0.025244
7.06	0.022132
7.061	0.024526
7.062	0.029422
7.063	0.032414
7.064	0.03164
7.065	0.028785
7.066	0.027381
7.067	0.030227
7.068	0.037535
7.069	0.046688
7.07	0.053435
7.071	0.053804
7.072	0.046261
7.073	0.033164
7.074	0.019609
7.075	0.009857
7.076	0.0048
7.077	0.002485
7.078	0.000711
7.079	-0.00043
7.08	0.00073
7.081	0.004019
7.082	0.00671
7.083	0.006412
7.084	0.003281
7.085	-0.000459
7.086	-0.002384
7.087	-0.001542
7.088	0.00093
7.089	0.002421
7.09	0.000433
7.091	-0.005742
7.092	-0.014238
7.093	-0.021287
7.094	-0.023639
7.095	-0.021238
7.096	-0.017514
7.097	-0.016942
7.098	-0.021471
7.099	-0.028269
7.1	-0.032015
7.101	-0.030338
7.102	-0.025881
7.103	-0.023238
7.104	-0.025046
7.105	-0.030637
7.106	-0.037383
7.107	-0.04265
7.108	-0.043902
7.109	-0.037152
7.11	-0.017494
7.111	0.015321
7.112	0.050204
7.113	0.067012
7.114	0.052169
7.115	0.014645
7.116	-0.017843
7.117	-0.022258
7.118	0.00164
7.119	0.036215
7.12	0.062898
7.121	0.072471
7.122	0.065498
7.123	0.048315
7.124	0.028339
7.125	0.011016
7.126	-0.000855
7.127	-0.006688
7.128	-0.007842
7.129	-0.00731
7.13	-0.008485
7.131	-0.012943
7.132	-0.018897
7.133	-0.022511
7.134	-0.021362
7.135	-0.016506
7.136	-0.011639
7.137	-0.010841
7.138	-0.015795
7.139	-0.023759
7.14	-0.029546
7.141	-0.030394
7.142	-0.027728
7.143	-0.024774
7.144	-0.023914
7.145	-0.025673
7.146	-0.029119
7.147	-0.033004
7.148	-0.036638
7.149	-0.039925
7.15	-0.042837
7.151	-0.044951
7.152	-0.045516
7.153	-0.044121
7.154	-0.041105
7.155	-0.037366
7.156	-0.034561
7.157	-0.035303
7.158	-0.041253
7.159	-0.050083
7.16	-0.056357
7.161	-0.056584
7.162	-0.051904
7.163	-0.04604
7.164	-0.042205
7.165	-0.041459
7.166	-0.042824
7.167	-0.044493
7.168	-0.045157
7.169	-0.044741
7.17	-0.044222
7.171	-0.044634
7.172	-0.046136
7.173	-0.047705
7.174	-0.047307
7.175	-0.042707
7.176	-0.033199
7.177	-0.020969
7.178	-0.010169
7.179	-0.004069
7.18	-0.003611
7.181	-0.008402
7.182	-0.017296
7.183	-0.028174
7.184	-0.038546
7.185	-0.046446
7.186	-0.050827
7.187	-0.051581
7.188	-0.049422
7.189	-0.045867
7.19	-0.042863
7.191	-0.041705
7.192	-0.042235
7.193	-0.043074
7.194	-0.042379
7.195	-0.039042
7.196	-0.034064
7.197	-0.030593
7.198	-0.03142
7.199	-0.035443
7.2	-0.037892
7.201	-0.035137
7.202	-0.027936
7.203	-0.020039
7.204	-0.015173
7.205	-0.015258
7.206	-0.020287
7.207	-0.02871
7.208	-0.037684
7.209	-0.04398
7.21	-0.045758
7.211	-0.043694
7.212	-0.04033
7.213	-0.038128
7.214	-0.037756
7.215	-0.037662
7.216	-0.034381
7.217	-0.02328
7.218	-0.000693
7.219	0.032008
7.22	0.06385
7.221	0.076511
7.222	0.059078
7.223	0.022322
7.224	-0.007228
7.225	-0.00973
7.226	0.013045
7.227	0.043648
7.228	0.06512
7.229	0.070406
7.23	0.061258
7.231	0.043285
7.232	0.022447
7.233	0.003696
7.234	-0.009651
7.235	-0.016596
7.236	-0.018723
7.237	-0.019589
7.238	-0.022721
7.239	-0.02871
7.24	-0.035022
7.241	-0.039124
7.242	-0.040348
7.243	-0.039235
7.244	-0.037011
7.245	-0.035492
7.246	-0.036035
7.247	-0.03808
7.248	-0.039256
7.249	-0.037371
7.25	-0.032244
7.251	-0.025731
7.252	-0.020355
7.253	-0.017694
7.254	-0.017538
7.255	-0.018403
7.256	-0.019243
7.257	-0.020962
7.258	-0.025353
7.259	-0.031729
7.26	-0.036467
7.261	-0.03686
7.262	-0.033429
7.263	-0.028482
7.264	-0.024523
7.265	-0.023599
7.266	-0.026161
7.267	-0.030157
7.268	-0.032196
7.269	-0.030152
7.27	-0.024828
7.271	-0.019396
7.272	-0.017121
7.273	-0.019126
7.274	-0.023858
7.275	-0.028352
7.276	-0.030248
7.277	-0.029501
7.278	-0.028123
7.279	-0.027721
7.28	-0.028085
7.281	-0.028159
7.282	-0.02655
7.283	-0.021673
7.284	-0.013447
7.285	-0.004429
7.286	0.001735
7.287	0.002893
7.288	-0.000352
7.289	-0.00549
7.29	-0.010309
7.291	-0.014299
7.292	-0.018152
7.293	-0.022427
7.294	-0.026612
7.295	-0.029147
7.296	-0.028797
7.297	-0.026594
7.298	-0.02555
7.299	-0.027309
7.3	-0.030285
7.301	-0.031912
7.302	-0.03098
7.303	-0.027946
7.304	-0.024718
7.305	-0.023618
7.306	-0.025539
7.307	-0.029071
7.308	-0.031175
7.309	-0.028955
7.31	-0.02194
7.311	-0.013122
7.312	-0.007262
7.313	-0.007533
7.314	-0.013077
7.315	-0.019378
7.316	-0.021681
7.317	-0.019085
7.318	-0.014983
7.319	-0.012919
7.32	-0.013568
7.321	-0.016099
7.322	-0.019468
7.323	-0.021355
7.324	-0.017243
7.325	-0.001394
7.326	0.02895
7.327	0.067106
7.328	0.095201
7.329	0.094275
7.33	0.061731
7.331	0.01831
7.332	-0.006937
7.333	-8.8e-05
7.334	0.029742
7.335	0.062318
7.336	0.081976
7.337	0.083796
7.338	0.07125
7.339	0.052012
7.34	0.033803
7.341	0.020686
7.342	0.012475
7.343	0.007007
7.344	0.002268
7.345	-0.00292
7.346	-0.009171
7.347	-0.016351
7.348	-0.022832
7.349	-0.025995
7.35	-0.024318
7.351	-0.018969
7.352	-0.013249
7.353	-0.010341
7.354	-0.010969
7.355	-0.013007
7.356	-0.013822
7.357	-0.01304
7.358	-0.012236
7.359	-0.011921
7.36	-0.010658
7.361	-0.00763
7.362	-0.004098
7.363	-0.001876
7.364	-0.001722
7.365	-0.00343
7.366	-0.006471
7.367	-0.009924
7.368	-0.012342
7.369	-0.012533
7.37	-0.010678
7.371	-0.00866
7.372	-0.00914
7.373	-0.013659
7.374	-0.020868
7.375	-0.026852
7.376	-0.027973
7.377	-0.023656
7.378	-0.016324
7.379	-0.008939
7.38	-0.003371
7.381	-0.000614
7.382	-0.000731
7.383	-0.002526
7.384	-0.004408
7.385	-0.0057
7.386	-0.006774
7.387	-0.007927
7.388	-0.008364
7.389	-0.006405
7.39	-0.000794
7.391	0.007905
7.392	0.017023
7.393	0.023193
7.394	0.02444
7.395	0.021022
7.396	0.014557
7.397	0.006563
7.398	-0.00205
7.399	-0.010072
7.4	-0.015764
7.401	-0.018216
7.402	-0.017795
7.403	-0.015328
7.404	-0.011921
7.405	-0.009306
7.406	-0.009433
7.407	-0.01308
7.408	-0.018669
7.409	-0.022905
7.41	-0.023305
7.411	-0.020567
7.412	-0.018102
7.413	-0.01861
7.414	-0.021424
7.415	-0.023445
7.416	-0.021935
7.417	-0.016602
7.418	-0.009739
7.419	-0.004172
7.42	-0.001395
7.421	-0.001548
7.422	-0.00351
7.423	-0.005042
7.424	-0.004436
7.425	-0.002167
7.426	-0.000389
7.427	-0.000794
7.428	-0.003144
7.429	-0.005818
7.43	-0.007149
7.431	-0.00525
7.432	0.003577
7.433	0.024202
7.434	0.056649
7.435	0.089402
7.436	0.102881
7.437	0.085351
7.438	0.046843
7.439	0.013991
7.44	0.008164
7.441	0.029098
7.442	0.059633
7.443	0.082349
7.444	0.089869
7.445	0.083744
7.446	0.068847
7.447	0.049838
7.448	0.03087
7.449	0.015999
7.45	0.007944
7.451	0.006084
7.452	0.006557
7.453	0.005109
7.454	0.000273
7.455	-0.005679
7.456	-0.008946
7.457	-0.008115
7.458	-0.005509
7.459	-0.00406
7.46	-0.004299
7.461	-0.00514
7.462	-0.005436
7.463	-0.004087
7.464	-0.000437
7.465	0.004858
7.466	0.009941
7.467	0.012899
7.468	0.012923
7.469	0.010661
7.47	0.007549
7.471	0.00465
7.472	0.001991
7.473	-0.001118
7.474	-0.004959
7.475	-0.008257
7.476	-0.008756
7.477	-0.005719
7.478	-0.001204
7.479	0.00184
7.48	0.001767
7.481	-0.001381
7.482	-0.00577
7.483	-0.008216
7.484	-0.006456
7.485	-0.001065
7.486	0.005164
7.487	0.009307
7.488	0.010188
7.489	0.009058
7.49	0.008421
7.491	0.009802
7.492	0.012386
7.493	0.013611
7.494	0.011544
7.495	0.007024
7.496	0.003013
7.497	0.001867
7.498	0.004084
7.499	0.009467
7.5	0.017448
7.501	0.025718
7.502	0.030832
7.503	0.030897
7.504	0.026845
7.505	0.021262
7.506	0.016148
7.507	0.01165
7.508	0.007243
7.509	0.003738
7.51	0.003166
7.511	0.006434
7.512	0.011593
7.513	0.014881
7.514	0.013891
7.515	0.009616
7.516	0.005172
7.517	0.002692
7.518	0.001783
7.519	0.000914
7.52	-0.000847
7.521	-0.003724
7.522	-0.006992
7.523	-0.008569
7.524	-0.00631
7.525	-7.3e-05
7.526	0.007566
7.527	0.012945
7.528	0.014313
7.529	0.013217
7.53	0.012669
7.531	0.014089
7.532	0.016047
7.533	0.015753
7.534	0.011842
7.535	0.005707
7.536	0.000158
7.537	-0.002916
7.538	-0.003004
7.539	0.00148
7.54	0.014705
7.541	0.039754
7.542	0.072138
7.543	0.097504
7.544	0.099613
7.545	0.075527
7.546	0.042325
7.547	0.024512
7.548	0.034128
7.549	0.063746
7.55	0.095744
7.551	0.115402
7.552	0.11714
7.553	0.103389
7.554	0.081004
7.555	0.057892
7.556	0.039956
7.557	0.028912
7.558	0.022581
7.559	0.017987
7.56	0.013634
7.561	0.008789
7.562	0.003203
7.563	-0.001519
7.564	-0.002402
7.565	0.001702
7.566	0.008118
7.567	0.012436
7.568	0.012371
7.569	0.009222
7.57	0.005951
7.571	0.004397
7.572	0.004512
7.573	0.00567
7.574	0.007495
7.575	0.009599
7.576	0.011689
7.577	0.013634
7.578	0.015218
7.579	0.016494
7.58	0.017542
7.581	0.017298
7.582	0.014277
7.583	0.009117
7.584	0.004903
7.585	0.004112
7.586	0.005962
7.587	0.00747
7.588	0.00661
7.589	0.004128
7.59	0.002728
7.591	0.004591
7.592	0.009323
7.593	0.014246
7.594	0.016663
7.595	0.015899
7.596	0.013296
7.597	0.010332
7.598	0.007386
7.599	0.004789
7.6	0.003592
7.601	0.004362
7.602	0.006687
7.603	0.010125
7.604	0.014911
7.605	0.021897
7.606	0.031453
7.607	0.041929
7.608	0.049704
7.609	0.051533
7.61	0.046948
7.611	0.038248
7.612	0.028701
7.613	0.020929
7.614	0.015902
7.615	0.012915
7.616	0.010826
7.617	0.00915
7.618	0.008132
7.619	0.008393
7.62	0.009918
7.621	0.011071
7.622	0.009961
7.623	0.006962
7.624	0.00468
7.625	0.005457
7.626	0.009312
7.627	0.013743
7.628	0.015342
7.629	0.012389
7.63	0.006354
7.631	0.000766
7.632	-0.00134
7.633	0.000774
7.634	0.005345
7.635	0.009503
7.636	0.011333
7.637	0.010862
7.638	0.009656
7.639	0.009919
7.64	0.012835
7.641	0.016886
7.642	0.01882
7.643	0.016667
7.644	0.011323
7.645	0.005896
7.646	0.00437
7.647	0.010828
7.648	0.028798
7.649	0.05843
7.65	0.091483
7.651	0.110912
7.652	0.102181
7.653	0.068894
7.654	0.034092
7.655	0.022333
7.656	0.040312
7.657	0.074149
7.658	0.102854
7.659	0.113846
7.66	0.107696
7.661	0.091807
7.662	0.073043
7.663	0.055593
7.664	0.04185
7.665	0.032954
7.666	0.028341
7.667	0.025678
7.668	0.022348
7.669	0.017559
7.67	0.013085
7.671	0.011837
7.672	0.015228
7.673	0.021427
7.674	0.026354
7.675	0.027028
7.676	0.023967
7.677	0.02006
7.678	0.017876
7.679	0.018729
7.68	0.022622
7.681	0.027582
7.682	0.030395
7.683	0.029125
7.684	0.024596
7.685	0.019439
7.686	0.015911
7.687	0.014427
7.688	0.0138
7.689	0.012813
7.69	0.011894
7.691	0.013269
7.692	0.018831
7.693	0.027535
7.694	0.035615
7.695	0.03964
7.696	0.038632
7.697	0.033479
7.698	0.026037
7.699	0.019474
7.7	0.017303
7.701	0.020263
7.702	0.025499
7.703	0.029848
7.704	0.032829
7.705	0.035714
7.706	0.03864
7.707	0.039903
7.708	0.038042
7.709	0.0339
7.71	0.030519
7.711	0.03105
7.712	0.036629
7.713	0.04614
7.714	0.057578
7.715	0.068857
7.716	0.077378
7.717	0.080267
7.718	0.076218
7.719	0.067215
7.72	0.057331
7.721	0.0491
7.722	0.042119
7.723	0.035523
7.724	0.030419
7.725	0.029233
7.726	0.033231
7.727	0.040972
7.728	0.048868
7.729	0.053342
7.73	0.053143
7.731	0.04989
7.732	0.046361
7.733	0.044383
7.734	0.043824
7.735	0.043037
7.736	0.040909
7.737	0.038357
7.738	0.037123
7.739	0.037941
7.74	0.039886
7.741	0.040822
7.742	0.039466
7.743	0.036939
7.744	0.035107
7.745	0.034399
7.746	0.034038
7.747	0.033086
7.748	0.031
7.749	0.028491
7.75	0.027473
7.751	0.0289
7.752	0.031915
7.753	0.036428
7.754	0.045008
7.755	0.061779
7.756	0.090146
7.757	0.128194
7.758	0.163056
7.759	0.174324
7.76	0.150501
7.761	0.103375
7.762	0.062229
7.763	0.051485
7.764	0.073756
7.765	0.112022
7.766	0.144664
7.767	0.158927
7.768	0.154441
7.769	0.138488
7.77	0.119425
7.771	0.102824
7.772	0.090994
7.773	0.083956
7.774	0.080056
7.775	0.076791
7.776	0.072581
7.777	0.06773
7.778	0.063799
7.779	0.062821
7.78	0.065822
7.781	0.070584
7.782	0.072372
7.783	0.068169
7.784	0.05937
7.785	0.0504
7.786	0.04561
7.787	0.046947
7.788	0.053248
7.789	0.061197
7.79	0.067378
7.791	0.070241
7.792	0.070585
7.793	0.070038
7.794	0.069233
7.795	0.067831
7.796	0.065491
7.797	0.061859
7.798	0.056786
7.799	0.051854
7.8	0.049994
7.801	0.051918
7.802	0.054587
7.803	0.054378
7.804	0.050552
7.805	0.045479
