animal_id,time_s,mv
102,0.0,-0.310016
102,0.001,-0.225753
102,0.002,-0.217754
102,0.003,-0.350082
102,0.004,-0.583287
102,0.005,-0.820574
102,0.006,-0.992588
102,0.007,-1.045249
102,0.008,-0.944783
102,0.009,-0.745427
102,0.01,-0.567545
102,0.011,-0.492927
102,0.012,-0.513642
102,0.013,-0.570004
102,0.014,-0.606928
102,0.015,-0.592942
102,0.016,-0.520332
102,0.017,-0.409895
102,0.018,-0.304186
102,0.019,-0.234062
102,0.02,-0.194646
102,0.021,-0.177121
102,0.022,-0.214611
102,0.023,-0.347638
102,0.024,-0.545916
102,0.025,-0.734637
102,0.026,-0.869163
102,0.027,-0.917062
102,0.028,-0.8502
102,0.029,-0.703986
102,0.03,-0.569959
102,0.031,-0.509411
102,0.032,-0.509237
102,0.033,-0.519407
102,0.034,-0.502788
102,0.035,-0.452649
102,0.036,-0.386254
102,0.037,-0.324514
102,0.038,-0.278396
102,0.039,-0.247982
102,0.04,-0.22432
102,0.041,-0.208724
102,0.042,-0.237316
102,0.043,-0.343998
102,0.044,-0.491842
102,0.045,-0.612235
102,0.046,-0.691064
102,0.047,-0.738438
102,0.048,-0.737225
102,0.049,-0.682129
102,0.05,-0.610112
102,0.051,-0.559558
102,0.052,-0.534729
102,0.053,-0.521991
102,0.054,-0.513236
102,0.055,-0.50372
102,0.056,-0.476849
102,0.057,-0.413913
102,0.058,-0.329239
102,0.059,-0.260855
102,0.06,-0.221335
102,0.061,-0.201679
102,0.062,-0.221262
102,0.063,-0.310512
102,0.064,-0.441253
102,0.065,-0.557801
102,0.066,-0.65262
102,0.067,-0.728674
102,0.068,-0.755561
102,0.069,-0.718762
102,0.07,-0.646663
102,0.071,-0.570304
102,0.072,-0.496741
102,0.073,-0.422354
102,0.074,-0.350087
102,0.075,-0.289703
102,0.076,-0.24867
102,0.077,-0.231006
102,0.078,-0.236491
102,0.079,-0.252549
102,0.08,-0.258194
102,0.081,-0.249241
102,0.082,-0.262288
102,0.083,-0.335698
102,0.084,-0.437966
102,0.085,-0.510958
102,0.086,-0.563591
102,0.087,-0.63244
102,0.088,-0.703433
102,0.089,-0.734603
102,0.09,-0.706418
102,0.091,-0.629628
102,0.092,-0.533513
102,0.093,-0.450889
102,0.094,-0.404765
102,0.095,-0.396118
102,0.096,-0.395709
102,0.097,-0.369498
102,0.098,-0.318979
102,0.099,-0.271834
102,0.1,-0.239544
102,0.101,-0.219921
102,0.102,-0.237574
102,0.103,-0.319666
102,0.104,-0.424774
102,0.105,-0.485479
102,0.106,-0.513066
102,0.107,-0.566408
102,0.108,-0.652717
102,0.109,-0.722115
102,0.11,-0.724667
102,0.111,-0.651155
102,0.112,-0.536102
102,0.113,-0.428433
102,0.114,-0.362831
102,0.115,-0.348625
102,0.116,-0.366828
102,0.117,-0.381458
102,0.118,-0.365968
102,0.119,-0.320156
102,0.12,-0.262033
102,0.121,-0.21978
102,0.122,-0.236502
102,0.123,-0.333377
102,0.124,-0.45243
102,0.125,-0.513496
102,0.126,-0.527819
102,0.127,-0.567599
102,0.128,-0.651672
102,0.129,-0.726334
102,0.13,-0.728678
102,0.131,-0.644029
102,0.132,-0.514827
102,0.133,-0.403711
102,0.134,-0.355616
102,0.135,-0.381087
102,0.136,-0.447542
102,0.137,-0.489155
102,0.138,-0.454472
102,0.139,-0.351574
102,0.14,-0.234792
102,0.141,-0.164228
102,0.142,-0.189425
102,0.143,-0.317441
102,0.144,-0.468721
102,0.145,-0.537986
102,0.146,-0.506462
102,0.147,-0.426546
102,0.148,-0.360081
102,0.149,-0.368185
102,0.15,-0.447994
102,0.151,-0.503936
102,0.152,-0.466656
102,0.153,-0.365511
102,0.154,-0.266769
102,0.155,-0.219503
102,0.156,-0.246761
102,0.157,-0.321328
102,0.158,-0.362427
102,0.159,-0.314958
102,0.16,-0.2151
102,0.161,-0.15036
102,0.162,-0.189863
102,0.163,-0.335185
102,0.164,-0.496643
102,0.165,-0.575557
102,0.166,-0.579209
102,0.167,-0.581037
102,0.168,-0.604836
102,0.169,-0.603038
102,0.17,-0.531348
102,0.171,-0.427507
102,0.172,-0.378495
102,0.173,-0.411673
102,0.174,-0.46138
102,0.175,-0.439866
102,0.176,-0.334177
102,0.177,-0.223712
102,0.178,-0.190601
102,0.179,-0.234174
102,0.18,-0.281761
102,0.181,-0.273449
102,0.182,-0.228366
102,0.183,-0.213315
102,0.184,-0.273187
102,0.185,-0.430099
102,0.186,-0.668714
102,0.187,-0.868455
102,0.188,-0.87352
102,0.189,-0.673475
102,0.19,-0.420166
102,0.191,-0.264888
102,0.192,-0.24787
102,0.193,-0.326268
102,0.194,-0.427559
102,0.195,-0.471078
102,0.196,-0.405596
102,0.197,-0.263998
102,0.198,-0.152678
102,0.199,-0.141298
102,0.2,-0.186383
102,0.201,-0.20554
102,0.202,-0.187203
102,0.203,-0.177421
102,0.204,-0.206682
102,0.205,-0.296165
102,0.206,-0.461396
102,0.207,-0.638309
102,0.208,-0.703092
102,0.209,-0.613723
102,0.21,-0.453595
102,0.211,-0.324593
102,0.212,-0.2645
102,0.213,-0.265595
102,0.214,-0.300072
102,0.215,-0.313646
102,0.216,-0.252829
102,0.217,-0.137616
102,0.218,-0.066715
102,0.219,-0.101053
102,0.22,-0.186865
102,0.221,-0.237185
102,0.222,-0.238843
102,0.223,-0.230972
102,0.224,-0.225622
102,0.225,-0.218671
102,0.226,-0.212839
102,0.227,-0.163353
102,0.228,-0.03737
102,0.229,0.046731
102,0.23,-0.039444
102,0.231,-0.214075
102,0.232,-0.322039
102,0.233,-0.334983
102,0.234,-0.292385
102,0.235,-0.199085
102,0.236,-0.053272
102,0.237,0.07785
102,0.238,0.089265
102,0.239,-0.036436
102,0.24,-0.200366
102,0.241,-0.299638
102,0.242,-0.322978
102,0.243,-0.311785
102,0.244,-0.270928
102,0.245,-0.184332
102,0.246,-0.058714
102,0.247,0.11771
102,0.248,0.314973
102,0.249,0.348238
102,0.25,0.105104
102,0.251,-0.21624
102,0.252,-0.377004
102,0.253,-0.38018
102,0.254,-0.35287
102,0.255,-0.35909
102,0.256,-0.369071
102,0.257,-0.341889
102,0.258,-0.295129
102,0.259,-0.269208
102,0.26,-0.261312
102,0.261,-0.238737
102,0.262,-0.202587
102,0.263,-0.185094
102,0.264,-0.199408
102,0.265,-0.261566
102,0.266,-0.409522
102,0.267,-0.620627
102,0.268,-0.781925
102,0.269,-0.796099
102,0.27,-0.663379
102,0.271,-0.456871
102,0.272,-0.269459
102,0.273,-0.179971
102,0.274,-0.225129
102,0.275,-0.369824
102,0.276,-0.504862
102,0.277,-0.523176
102,0.278,-0.423301
102,0.279,-0.293808
102,0.28,-0.194422
102,0.281,-0.12054
102,0.282,-0.074932
102,0.283,-0.083978
102,0.284,-0.149126
102,0.285,-0.259707
102,0.286,-0.410496
102,0.287,-0.541976
102,0.288,-0.564387
102,0.289,-0.485352
102,0.29,-0.382977
102,0.291,-0.280148
102,0.292,-0.16949
102,0.293,-0.076019
102,0.294,-0.019321
102,0.295,0.014245
102,0.296,0.034281
102,0.297,0.023165
102,0.298,-0.032053
102,0.299,-0.109478
102,0.3,-0.164388
102,0.301,-0.17119
102,0.302,-0.156967
102,0.303,-0.167974
102,0.304,-0.21307
102,0.305,-0.293725
102,0.306,-0.442672
102,0.307,-0.651441
102,0.308,-0.818876
102,0.309,-0.837011
102,0.31,-0.689511
102,0.311,-0.453738
102,0.312,-0.238416
102,0.313,-0.118016
102,0.314,-0.098338
102,0.315,-0.12508
102,0.316,-0.13491
102,0.317,-0.111488
102,0.318,-0.086713
102,0.319,-0.089466
102,0.32,-0.108939
102,0.321,-0.119883
102,0.322,-0.130411
102,0.323,-0.166982
102,0.324,-0.222797
102,0.325,-0.282947
102,0.326,-0.363865
102,0.327,-0.454059
102,0.328,-0.498338
102,0.329,-0.483423
102,0.33,-0.428878
102,0.331,-0.326956
102,0.332,-0.191109
102,0.333,-0.088118
102,0.334,-0.06702
102,0.335,-0.097386
102,0.336,-0.099361
102,0.337,-0.041835
102,0.338,0.017177
102,0.339,0.012585
102,0.34,-0.046615
102,0.341,-0.106826
102,0.342,-0.146539
102,0.343,-0.181693
102,0.344,-0.218593
102,0.345,-0.273191
102,0.346,-0.399553
102,0.347,-0.608837
102,0.348,-0.805381
102,0.349,-0.859718
102,0.35,-0.721274
102,0.351,-0.455908
102,0.352,-0.189102
102,0.353,-0.017975
102,0.354,0.038868
102,0.355,0.037221
102,0.356,0.048331
102,0.357,0.084099
102,0.358,0.094093
102,0.359,0.040386
102,0.36,-0.051454
102,0.361,-0.123359
102,0.362,-0.150185
102,0.363,-0.147353
102,0.364,-0.113003
102,0.365,-0.015906
102,0.366,0.172039
102,0.367,0.462544
102,0.368,0.741559
102,0.369,0.736743
102,0.37,0.376787
102,0.371,-0.029957
102,0.372,-0.222273
102,0.373,-0.251788
102,0.374,-0.254397
102,0.375,-0.261454
102,0.376,-0.248603
102,0.377,-0.222186
102,0.378,-0.210608
102,0.379,-0.216785
102,0.38,-0.216341
102,0.381,-0.186917
102,0.382,-0.1375
102,0.383,-0.1026
102,0.384,-0.101371
102,0.385,-0.134075
102,0.386,-0.180327
102,0.387,-0.156135
102,0.388,-0.016474
102,0.389,0.094308
102,0.39,0.047048
102,0.391,-0.04706
102,0.392,-0.062903
102,0.393,-0.065235
102,0.394,-0.162762
102,0.395,-0.351862
102,0.396,-0.524614
102,0.397,-0.56919
102,0.398,-0.468989
102,0.399,-0.3052
102,0.4,-0.163349
102,0.401,-0.065495
102,0.402,-0.002368
102,0.403,0.024509
102,0.404,0.019311
102,0.405,-0.003177
102,0.406,-0.010126
102,0.407,0.08958
102,0.408,0.315717
102,0.409,0.450745
102,0.41,0.323492
102,0.411,0.106386
102,0.412,0.008075
102,0.413,-0.016529
102,0.414,-0.091314
102,0.415,-0.233065
102,0.416,-0.365492
102,0.417,-0.40306
102,0.418,-0.329001
102,0.419,-0.207372
102,0.42,-0.108511
102,0.421,-0.046274
102,0.422,-0.006937
102,0.423,0.014841
102,0.424,0.039816
102,0.425,0.106018
102,0.426,0.248289
102,0.427,0.490374
102,0.428,0.731346
102,0.429,0.717759
102,0.43,0.394945
102,0.431,0.067421
102,0.432,-0.028942
102,0.433,0.018582
102,0.434,0.043575
102,0.435,0.004113
102,0.436,-0.047126
102,0.437,-0.056051
102,0.438,-0.028023
102,0.439,-0.015969
102,0.44,-0.046474
102,0.441,-0.086364
102,0.442,-0.099739
102,0.443,-0.083896
102,0.444,-0.028923
102,0.445,0.089083
102,0.446,0.27901
102,0.447,0.531341
102,0.448,0.731886
102,0.449,0.65115
102,0.45,0.27864
102,0.451,-0.051666
102,0.452,-0.110814
102,0.453,-0.019511
102,0.454,0.021303
102,0.455,-0.042266
102,0.456,-0.13301
102,0.457,-0.156835
102,0.458,-0.104545
102,0.459,-0.048112
102,0.46,-0.040704
102,0.461,-0.060541
102,0.462,-0.066619
102,0.463,-0.045785
102,0.464,0.010552
102,0.465,0.090854
102,0.466,0.139299
102,0.467,0.135847
102,0.468,0.103753
102,0.469,0.003806
102,0.47,-0.158109
102,0.471,-0.225622
102,0.472,-0.138597
102,0.473,-0.045304
102,0.474,-0.052791
102,0.475,-0.083442
102,0.476,-0.014752
102,0.477,0.123606
102,0.478,0.166041
102,0.479,0.032378
102,0.48,-0.160906
102,0.481,-0.237937
102,0.482,-0.145986
102,0.483,0.024289
102,0.484,0.131177
102,0.485,0.058101
102,0.486,-0.181159
102,0.487,-0.364036
102,0.488,-0.28316
102,0.489,-0.057433
102,0.49,0.065796
102,0.491,0.074655
102,0.492,0.05768
102,0.493,-0.006484
102,0.494,-0.125688
102,0.495,-0.194833
102,0.496,-0.121895
102,0.497,0.024757
102,0.498,0.079534
102,0.499,-0.015002
102,0.5,-0.145623
102,0.501,-0.172107
102,0.502,-0.0717
102,0.503,0.070951
102,0.504,0.154167
102,0.505,0.113805
102,0.506,-0.0108
102,0.507,-0.052171
102,0.508,0.073591
102,0.509,0.196144
102,0.51,0.167744
102,0.511,0.096123
102,0.512,0.090635
102,0.513,0.084787
102,0.514,0.01453
102,0.515,-0.061881
102,0.516,-0.06582
102,0.517,-0.019502
102,0.518,-0.013482
102,0.519,-0.081047
102,0.52,-0.1527
102,0.521,-0.140316
102,0.522,-0.039263
102,0.523,0.075215
102,0.524,0.11792
102,0.525,0.039889
102,0.526,-0.10654
102,0.527,-0.145961
102,0.528,0.004607
102,0.529,0.165557
102,0.53,0.176394
102,0.531,0.131492
102,0.532,0.128041
102,0.533,0.092338
102,0.534,-0.03655
102,0.535,-0.181581
102,0.536,-0.229665
102,0.537,-0.169725
102,0.538,-0.092899
102,0.539,-0.073842
102,0.54,-0.087758
102,0.541,-0.06111
102,0.542,0.023991
102,0.543,0.116318
102,0.544,0.156155
102,0.545,0.110244
102,0.546,0.016902
102,0.547,0.009992
102,0.548,0.14172
102,0.549,0.245612
102,0.55,0.201517
102,0.551,0.129529
102,0.552,0.130267
102,0.553,0.128205
102,0.554,0.05755
102,0.555,-0.019169
102,0.556,-0.014836
102,0.557,0.05322
102,0.558,0.086186
102,0.559,0.031788
102,0.56,-0.054957
102,0.561,-0.08278
102,0.562,-0.028492
102,0.563,0.053701
102,0.564,0.097958
102,0.565,0.066806
102,0.566,-0.005392
102,0.567,0.007594
102,0.568,0.149342
102,0.569,0.252268
102,0.57,0.201935
102,0.571,0.120444
102,0.572,0.102488
102,0.573,0.063633
102,0.574,-0.065791
102,0.575,-0.212718
102,0.576,-0.255422
102,0.577,-0.169793
102,0.578,-0.054494
102,0.579,-0.010639
102,0.58,-0.029655
102,0.581,-0.029846
102,0.582,0.026949
102,0.583,0.1075
102,0.584,0.17261
102,0.585,0.216835
102,0.586,0.284812
102,0.587,0.440439
102,0.588,0.607556
102,0.589,0.578233
102,0.59,0.341822
102,0.591,0.137972
102,0.592,0.084854
102,0.593,0.063951
102,0.594,-0.028304
102,0.595,-0.139622
102,0.596,-0.161676
102,0.597,-0.082569
102,0.598,-0.003941
102,0.599,-0.006875
102,0.6,-0.055488
102,0.601,-0.059472
102,0.602,0.01091
102,0.603,0.110954
102,0.604,0.193943
102,0.605,0.251873
102,0.606,0.327614
102,0.607,0.48013
102,0.608,0.630908
102,0.609,0.579046
102,0.61,0.325208
102,0.611,0.115274
102,0.612,0.066034
102,0.613,0.057893
102,0.614,-0.007586
102,0.615,-0.077892
102,0.616,-0.060861
102,0.617,0.032854
102,0.618,0.092091
102,0.619,0.044959
102,0.62,-0.052773
102,0.621,-0.09085
102,0.622,-0.027251
102,0.623,0.102098
102,0.624,0.264053
102,0.625,0.448765
102,0.626,0.642963
102,0.627,0.816059
102,0.628,0.857014
102,0.629,0.63124
102,0.63,0.238933
102,0.631,-0.029626
102,0.632,-0.08496
102,0.633,-0.093416
102,0.634,-0.177816
102,0.635,-0.293456
102,0.636,-0.345173
102,0.637,-0.309107
102,0.638,-0.238138
102,0.639,-0.1848
102,0.64,-0.142635
102,0.641,-0.066689
102,0.642,0.055487
102,0.643,0.190808
102,0.644,0.319807
102,0.645,0.449755
102,0.646,0.591442
102,0.647,0.738873
102,0.648,0.787668
102,0.649,0.591511
102,0.65,0.241216
102,0.651,0.026689
102,0.652,0.034453
102,0.653,0.0797
102,0.654,0.000294
102,0.655,-0.189555
102,0.656,-0.364671
102,0.657,-0.417467
102,0.658,-0.347143
102,0.659,-0.23469
102,0.66,-0.134331
102,0.661,-0.030981
102,0.662,0.088602
102,0.663,0.199523
102,0.664,0.290516
102,0.665,0.380787
102,0.666,0.495845
102,0.667,0.638505
102,0.668,0.704092
102,0.669,0.539731
102,0.67,0.22334
102,0.671,0.026712
102,0.672,0.025422
102,0.673,0.050139
102,0.674,-0.020308
102,0.675,-0.152624
102,0.676,-0.267775
102,0.677,-0.319318
102,0.678,-0.298534
102,0.679,-0.226524
102,0.68,-0.126707
102,0.681,-0.005612
102,0.682,0.116025
102,0.683,0.200013
102,0.684,0.241567
102,0.685,0.276433
102,0.686,0.351756
102,0.687,0.490018
102,0.688,0.592069
102,0.689,0.48792
102,0.69,0.22782
102,0.691,0.070526
102,0.692,0.100338
102,0.693,0.15866
102,0.694,0.120651
102,0.695,0.014551
102,0.696,-0.074974
102,0.697,-0.105321
102,0.698,-0.091431
102,0.699,-0.067574
102,0.7,-0.04115
102,0.701,0.004735
102,0.702,0.061175
102,0.703,0.094734
102,0.704,0.105803
102,0.705,0.132593
102,0.706,0.215378
102,0.707,0.36755
102,0.708,0.507677
102,0.709,0.505102
102,0.71,0.375836
102,0.711,0.247251
102,0.712,0.128117
102,0.713,-0.063362
102,0.714,-0.292863
102,0.715,-0.403009
102,0.716,-0.308041
102,0.717,-0.113858
102,0.718,-0.008494
102,0.719,-0.055082
102,0.72,-0.135853
102,0.721,-0.106287
102,0.722,0.046117
102,0.723,0.218605
102,0.724,0.305163
102,0.725,0.27083
102,0.726,0.212195
102,0.727,0.312868
102,0.728,0.569642
102,0.729,0.712355
102,0.73,0.595515
102,0.731,0.377582
102,0.732,0.19525
102,0.733,0.009444
102,0.734,-0.198909
102,0.735,-0.3295
102,0.736,-0.289779
102,0.737,-0.133843
102,0.738,-0.017264
102,0.739,-0.015339
102,0.74,-0.05171
102,0.741,-0.03253
102,0.742,0.022087
102,0.743,0.036958
102,0.744,0.01291
102,0.745,0.036963
102,0.746,0.224884
102,0.747,0.623301
102,0.748,1.02529
102,0.749,1.080223
102,0.75,0.757994
102,0.751,0.375446
102,0.752,0.12639
102,0.753,-0.058056
102,0.754,-0.250597
102,0.755,-0.388711
102,0.756,-0.378719
102,0.757,-0.244266
102,0.758,-0.121354
102,0.759,-0.096469
102,0.76,-0.112766
102,0.761,-0.071266
102,0.762,0.038727
102,0.763,0.158056
102,0.764,0.254098
102,0.765,0.358125
102,0.766,0.563816
102,0.767,0.927397
102,0.768,1.251084
102,0.769,1.198549
102,0.77,0.769263
102,0.771,0.313485
102,0.772,0.049822
102,0.773,-0.081368
102,0.774,-0.165715
102,0.775,-0.186339
102,0.776,-0.118041
102,0.777,-0.022609
102,0.778,-0.002365
102,0.779,-0.074648
102,0.78,-0.143202
102,0.781,-0.109894
102,0.782,0.022698
102,0.783,0.17737
102,0.784,0.268786
102,0.785,0.204023
102,0.786,-0.075112
102,0.787,-0.472883
102,0.788,-0.755734
102,0.789,-0.747132
102,0.79,-0.471406
102,0.791,-0.111683
102,0.792,0.139058
102,0.793,0.202199
102,0.794,0.142654
102,0.795,0.091596
102,0.796,0.121471
102,0.797,0.192563
102,0.798,0.218731
102,0.799,0.170421
102,0.8,0.099549
102,0.801,0.059939
102,0.802,0.036307
102,0.803,-0.00982
102,0.804,-0.061005
102,0.805,-0.06135
102,0.806,0.031232
102,0.807,0.197593
102,0.808,0.304645
102,0.809,0.231517
102,0.81,0.065446
102,0.811,-0.018432
102,0.812,0.00511
102,0.813,0.048719
102,0.814,0.076802
102,0.815,0.126635
102,0.816,0.21591
102,0.817,0.294692
102,0.818,0.293814
102,0.819,0.204494
102,0.82,0.094578
102,0.821,0.029303
102,0.822,-0.002153
102,0.823,-0.047116
102,0.824,-0.12064
102,0.825,-0.226707
102,0.826,-0.379646
102,0.827,-0.550719
102,0.828,-0.650703
102,0.829,-0.601865
102,0.83,-0.412553
102,0.831,-0.173203
102,0.832,0.012909
102,0.833,0.097976
102,0.834,0.111994
102,0.835,0.121876
102,0.836,0.162742
102,0.837,0.207345
102,0.838,0.202097
102,0.839,0.137478
102,0.84,0.066233
102,0.841,0.033804
102,0.842,0.019473
102,0.843,-0.016063
102,0.844,-0.067625
102,0.845,-0.1284
102,0.846,-0.232092
102,0.847,-0.386343
102,0.848,-0.51782
102,0.849,-0.531661
102,0.85,-0.405099
102,0.851,-0.206086
102,0.852,-0.033753
102,0.853,0.057775
102,0.854,0.091972
102,0.855,0.131833
102,0.856,0.207231
102,0.857,0.274939
102,0.858,0.264673
102,0.859,0.172438
102,0.86,0.072446
102,0.861,0.022843
102,0.862,0.000413
102,0.863,-0.036501
102,0.864,-0.067641
102,0.865,-0.057473
102,0.866,-0.026784
102,0.867,-0.033605
102,0.868,-0.120117
102,0.869,-0.248002
102,0.87,-0.300638
102,0.871,-0.218461
102,0.872,-0.0675
102,0.873,0.058306
102,0.874,0.12357
102,0.875,0.143612
102,0.876,0.14417
102,0.877,0.131324
102,0.878,0.09532
102,0.879,0.043548
102,0.88,0.010162
102,0.881,0.012288
102,0.882,0.01282
102,0.883,-0.02823
102,0.884,-0.091897
102,0.885,-0.152329
102,0.886,-0.23744
102,0.887,-0.370244
102,0.888,-0.497891
102,0.889,-0.528084
102,0.89,-0.419185
102,0.891,-0.220769
102,0.892,-0.031827
102,0.893,0.074517
102,0.894,0.082606
102,0.895,0.017034
102,0.896,-0.073655
102,0.897,-0.133725
102,0.898,-0.133488
102,0.899,-0.080565
102,0.9,0.004617
102,0.901,0.090864
102,0.902,0.120104
102,0.903,0.051497
102,0.904,-0.089852
102,0.905,-0.259857
102,0.906,-0.441355
102,0.907,-0.600022
102,0.908,-0.660518
102,0.909,-0.569461
102,0.91,-0.354474
102,0.911,-0.110749
102,0.912,0.065207
102,0.913,0.139239
102,0.914,0.141538
102,0.915,0.109933
102,0.916,0.05724
102,0.917,-0.000873
102,0.918,-0.031571
102,0.919,-0.013659
102,0.92,0.047965
102,0.921,0.117402
102,0.922,0.126351
102,0.923,0.030857
102,0.924,-0.136383
102,0.925,-0.31757
102,0.926,-0.487346
102,0.927,-0.617405
102,0.928,-0.648698
102,0.929,-0.54139
102,0.93,-0.326489
102,0.931,-0.095013
102,0.932,0.06872
102,0.933,0.151592
102,0.934,0.202488
102,0.935,0.253164
102,0.936,0.272101
102,0.937,0.223891
102,0.938,0.137197
102,0.939,0.073891
102,0.94,0.06412
102,0.941,0.080346
102,0.942,0.053749
102,0.943,-0.053637
102,0.944,-0.195268
102,0.945,-0.30779
102,0.946,-0.392911
102,0.947,-0.473529
102,0.948,-0.521513
102,0.949,-0.479262
102,0.95,-0.333364
102,0.951,-0.145987
102,0.952,-0.000958
102,0.953,0.072369
102,0.954,0.103527
102,0.955,0.124088
102,0.956,0.132456
102,0.957,0.11814
102,0.958,0.092817
102,0.959,0.079132
102,0.96,0.084759
102,0.961,0.086095
102,0.962,0.03482
102,0.963,-0.079484
102,0.964,-0.182407
102,0.965,-0.201489
102,0.966,-0.176235
102,0.967,-0.2032
102,0.968,-0.296735
102,0.969,-0.366094
102,0.97,-0.329652
102,0.971,-0.210653
102,0.972,-0.097301
102,0.973,-0.040725
102,0.974,-0.022685
102,0.975,-0.001886
102,0.976,0.039612
102,0.977,0.089969
102,0.978,0.124652
102,0.979,0.131843
102,0.98,0.122167
102,0.981,0.097634
102,0.982,0.02666
102,0.983,-0.10418
102,0.984,-0.235297
102,0.985,-0.300417
102,0.986,-0.317129
102,0.987,-0.346861
102,0.988,-0.394164
102,0.989,-0.394773
102,0.99,-0.303466
102,0.991,-0.158235
102,0.992,-0.038562
102,0.993,0.013867
102,0.994,0.015502
102,0.995,0.005197
102,0.996,0.0159
102,0.997,0.059704
102,0.998,0.113657
102,0.999,0.144301
102,1.0,0.144342
102,1.001,0.112167
102,1.002,0.023625
102,1.003,-0.10951
102,1.004,-0.175488
102,1.005,-0.048567
102,1.006,0.255895
102,1.007,0.533777
102,1.008,0.530186
102,1.009,0.227066
102,1.01,-0.098359
102,1.011,-0.213079
102,1.012,-0.1403
102,1.013,-0.011152
102,1.014,0.090248
102,1.015,0.136631
102,1.016,0.132747
102,1.017,0.103775
102,1.018,0.079338
102,1.019,0.0743
102,1.02,0.081207
102,1.021,0.070313
102,1.022,0.0015
102,1.023,-0.117635
102,1.024,-0.194721
102,1.025,-0.154959
102,1.026,-0.06422
102,1.027,-0.066845
102,1.028,-0.207856
102,1.029,-0.374171
102,1.03,-0.419993
102,1.031,-0.310779
102,1.032,-0.122512
102,1.033,0.064128
102,1.034,0.223666
102,1.035,0.3568
102,1.036,0.440547
102,1.037,0.418791
102,1.038,0.263537
102,1.039,0.045618
102,1.04,-0.103398
102,1.041,-0.118677
102,1.042,-0.059521
102,1.043,-0.01997
102,1.044,-0.038702
102,1.045,-0.124747
102,1.046,-0.270136
102,1.047,-0.403091
102,1.048,-0.424807
102,1.049,-0.314471
102,1.05,-0.14848
102,1.051,-0.024908
102,1.052,0.006792
102,1.053,-0.029453
102,1.054,-0.057262
102,1.055,-0.013528
102,1.056,0.084452
102,1.057,0.147785
102,1.058,0.111105
102,1.059,0.008787
102,1.06,-0.061539
102,1.061,-0.053031
102,1.062,-0.019252
102,1.063,-0.020576
102,1.064,-0.033707
102,1.065,0.003088
102,1.066,0.119055
102,1.067,0.268573
102,1.068,0.318314
102,1.069,0.200397
102,1.07,0.036827
102,1.071,-0.03738
102,1.072,-0.031174
102,1.073,-0.005049
102,1.074,0.031244
102,1.075,0.105819
102,1.076,0.21665
102,1.077,0.294314
102,1.078,0.261237
102,1.079,0.129374
102,1.08,0.001596
102,1.081,-0.049421
102,1.082,-0.060784
102,1.083,-0.099149
102,1.084,-0.173267
102,1.085,-0.271945
102,1.086,-0.396262
102,1.087,-0.509729
102,1.088,-0.534852
102,1.089,-0.434095
102,1.09,-0.256018
102,1.091,-0.092645
102,1.092,-0.005611
102,1.093,0.016967
102,1.094,0.046202
102,1.095,0.140056
102,1.096,0.265495
102,1.097,0.319771
102,1.098,0.247826
102,1.099,0.106868
102,1.1,0.001902
102,1.101,-0.029675
102,1.102,-0.0481
102,1.103,-0.113807
102,1.104,-0.215109
102,1.105,-0.324463
102,1.106,-0.439744
102,1.107,-0.531387
102,1.108,-0.533584
102,1.109,-0.418258
102,1.11,-0.234629
102,1.111,-0.07228
102,1.112,0.003875
102,1.113,-0.003661
102,1.114,-0.030671
102,1.115,-0.005054
102,1.116,0.081462
102,1.117,0.159661
102,1.118,0.162353
102,1.119,0.103618
102,1.12,0.052646
102,1.121,0.035292
102,1.122,0.000798
102,1.123,-0.093851
102,1.124,-0.222373
102,1.125,-0.348433
102,1.126,-0.4654
102,1.127,-0.543684
102,1.128,-0.525287
102,1.129,-0.392853
102,1.13,-0.199184
102,1.131,-0.027725
102,1.132,0.066283
102,1.133,0.085168
102,1.134,0.075705
102,1.135,0.090224
102,1.136,0.140205
102,1.137,0.183948
102,1.138,0.175999
102,1.139,0.124412
102,1.14,0.078638
102,1.141,0.055621
102,1.142,0.009975
102,1.143,-0.092213
102,1.144,-0.218506
102,1.145,-0.329945
102,1.146,-0.422809
102,1.147,-0.481831
102,1.148,-0.465524
102,1.149,-0.355084
102,1.15,-0.186606
102,1.151,-0.027587
102,1.152,0.074605
102,1.153,0.118808
102,1.154,0.137662
102,1.155,0.165163
102,1.156,0.203551
102,1.157,0.221484
102,1.158,0.191564
102,1.159,0.127139
102,1.16,0.071821
102,1.161,0.040715
102,1.162,-0.006847
102,1.163,-0.100737
102,1.164,-0.209129
102,1.165,-0.298621
102,1.166,-0.376109
102,1.167,-0.438733
102,1.168,-0.446974
102,1.169,-0.368306
102,1.17,-0.221857
102,1.171,-0.06437
102,1.172,0.062752
102,1.173,0.160695
102,1.174,0.255195
102,1.175,0.355673
102,1.176,0.42816
102,1.177,0.420127
102,1.178,0.317956
102,1.179,0.169644
102,1.18,0.047306
102,1.181,-0.020194
102,1.182,-0.070576
102,1.183,-0.134999
102,1.184,-0.181958
102,1.185,-0.18754
102,1.186,-0.196009
102,1.187,-0.255283
102,1.188,-0.339613
102,1.189,-0.371738
102,1.19,-0.306503
102,1.191,-0.172112
102,1.192,-0.031218
102,1.193,0.078739
102,1.194,0.157886
102,1.195,0.214133
102,1.196,0.241183
102,1.197,0.224723
102,1.198,0.162502
102,1.199,0.077509
102,1.2,0.009657
102,1.201,-0.022945
102,1.202,-0.050206
102,1.203,-0.095584
102,1.204,-0.128724
102,1.205,-0.136661
102,1.206,-0.178047
102,1.207,-0.295671
102,1.208,-0.428291
102,1.209,-0.465002
102,1.21,-0.364946
102,1.211,-0.196554
102,1.212,-0.066807
102,1.213,-0.019757
102,1.214,-0.010085
102,1.215,0.024251
102,1.216,0.089727
102,1.217,0.144193
102,1.218,0.146956
102,1.219,0.098678
102,1.22,0.042369
102,1.221,0.007347
102,1.222,-0.031114
102,1.223,-0.084005
102,1.224,-0.07556
102,1.225,0.090808
102,1.226,0.415904
102,1.227,0.733225
102,1.228,0.768683
102,1.229,0.4542
102,1.23,0.070316
102,1.231,-0.118259
102,1.232,-0.124408
102,1.233,-0.071114
102,1.234,-0.015947
102,1.235,0.044119
102,1.236,0.108471
102,1.237,0.142779
102,1.238,0.114751
102,1.239,0.043467
102,1.24,-0.013817
102,1.241,-0.028037
102,1.242,-0.032146
102,1.243,-0.064461
102,1.244,-0.114675
102,1.245,-0.172012
102,1.246,-0.262405
102,1.247,-0.388065
102,1.248,-0.483117
102,1.249,-0.466103
102,1.25,-0.324928
102,1.251,-0.136408
102,1.252,0.00137
102,1.253,0.053118
102,1.254,0.059894
102,1.255,0.078084
102,1.256,0.116936
102,1.257,0.135746
102,1.258,0.101866
102,1.259,0.037186
102,1.26,-0.006709
102,1.261,-0.012085
102,1.262,-0.018128
102,1.263,-0.051247
102,1.264,-0.056429
102,1.265,0.049544
102,1.266,0.285671
102,1.267,0.53417
102,1.268,0.558513
102,1.269,0.288707
102,1.27,-0.016906
102,1.271,-0.120807
102,1.272,-0.071445
102,1.273,-0.019053
102,1.274,-0.023932
102,1.275,-0.065001
102,1.276,-0.100361
102,1.277,-0.105344
102,1.278,-0.087824
102,1.279,-0.069625
102,1.28,-0.045995
102,1.281,0.010568
102,1.282,0.096612
102,1.283,0.173664
102,1.284,0.21075
102,1.285,0.202162
102,1.286,0.180381
102,1.287,0.163451
102,1.288,0.082003
102,1.289,-0.080727
102,1.29,-0.175125
102,1.291,-0.100048
102,1.292,0.05139
102,1.293,0.146062
102,1.294,0.141091
102,1.295,0.061523
102,1.296,-0.045603
102,1.297,-0.125998
102,1.298,-0.13823
102,1.299,-0.082795
102,1.3,0.004761
102,1.301,0.074545
102,1.302,0.075325
102,1.303,0.010609
102,1.304,-0.022401
102,1.305,0.08798
102,1.306,0.359813
102,1.307,0.659731
102,1.308,0.750354
102,1.309,0.553847
102,1.31,0.278796
102,1.311,0.112498
102,1.312,0.020973
102,1.313,-0.067927
102,1.314,-0.122424
102,1.315,-0.087835
102,1.316,-0.003405
102,1.317,0.024872
102,1.318,-0.047144
102,1.319,-0.1503
102,1.32,-0.175323
102,1.321,-0.086832
102,1.322,0.040418
102,1.323,0.109042
102,1.324,0.079475
102,1.325,-0.030391
102,1.326,-0.133031
102,1.327,-0.12461
102,1.328,-0.034463
102,1.329,0.033043
102,1.33,0.072577
102,1.331,0.10336
102,1.332,0.070048
102,1.333,-0.055977
102,1.334,-0.20244
102,1.335,-0.266812
102,1.336,-0.219633
102,1.337,-0.1268
102,1.338,-0.074561
102,1.339,-0.0747
102,1.34,-0.058414
102,1.341,0.021209
102,1.342,0.11855
102,1.343,0.152358
102,1.344,0.067686
102,1.345,-0.166411
102,1.346,-0.503025
102,1.347,-0.763036
102,1.348,-0.761848
102,1.349,-0.492668
102,1.35,-0.131311
102,1.351,0.104846
102,1.352,0.093439
102,1.353,-0.12541
102,1.354,-0.385455
102,1.355,-0.530584
102,1.356,-0.522158
102,1.357,-0.417677
102,1.358,-0.286316
102,1.359,-0.150985
102,1.36,0.005124
102,1.361,0.175851
102,1.362,0.298518
102,1.363,0.30169
102,1.364,0.141997
102,1.365,-0.194575
102,1.366,-0.616867
102,1.367,-0.892231
102,1.368,-0.825305
102,1.369,-0.452895
102,1.37,-0.011691
102,1.371,0.239369
102,1.372,0.169785
102,1.373,-0.15114
102,1.374,-0.504741
102,1.375,-0.703918
102,1.376,-0.714991
102,1.377,-0.597557
102,1.378,-0.407503
102,1.379,-0.172734
102,1.38,0.085545
102,1.381,0.318887
102,1.382,0.450047
102,1.383,0.429871
102,1.384,0.274615
102,1.385,0.061288
102,1.386,-0.050661
102,1.387,0.065312
102,1.388,0.287631
102,1.389,0.405832
102,1.39,0.414036
102,1.391,0.370593
102,1.392,0.220219
102,1.393,-0.051729
102,1.394,-0.309941
102,1.395,-0.41716
102,1.396,-0.378926
102,1.397,-0.286551
102,1.398,-0.192111
102,1.399,-0.080158
102,1.4,0.075868
102,1.401,0.251486
102,1.402,0.370785
102,1.403,0.383313
102,1.404,0.319227
102,1.405,0.269355
102,1.406,0.358966
102,1.407,0.605018
102,1.408,0.765214
102,1.409,0.641872
102,1.41,0.405004
102,1.411,0.280904
102,1.412,0.242907
102,1.413,0.194061
102,1.414,0.156704
102,1.415,0.205348
102,1.416,0.329426
102,1.417,0.412325
102,1.418,0.351178
102,1.419,0.17261
102,1.42,0.001521
102,1.421,-0.074641
102,1.422,-0.063811
102,1.423,0.037019
102,1.424,0.335084
102,1.425,0.935873
102,1.426,1.757565
102,1.427,2.396303
102,1.428,2.271785
102,1.429,1.312862
102,1.43,0.237953
102,1.431,-0.287236
102,1.432,-0.259419
102,1.433,0.021891
102,1.434,0.362331
102,1.435,0.695058
102,1.436,0.945699
102,1.437,0.980342
102,1.438,0.726156
102,1.439,0.279772
102,1.44,-0.151528
102,1.441,-0.408716
102,1.442,-0.477531
102,1.443,-0.420993
102,1.444,-0.278286
102,1.445,-0.085665
102,1.446,0.080854
102,1.447,0.121301
102,1.448,-0.035503
102,1.449,-0.306519
102,1.45,-0.464227
102,1.451,-0.405233
102,1.452,-0.252494
102,1.453,-0.149679
102,1.454,-0.124067
102,1.455,-0.13491
102,1.456,-0.145982
102,1.457,-0.145281
102,1.458,-0.140629
102,1.459,-0.145058
102,1.46,-0.147307
102,1.461,-0.126489
102,1.462,-0.099359
102,1.463,-0.088611
102,1.464,-0.066769
102,1.465,0.012249
102,1.466,0.161656
102,1.467,0.304244
102,1.468,0.267309
102,1.469,0.023263
102,1.47,-0.184083
102,1.471,-0.17377
102,1.472,-0.039988
102,1.473,0.057429
102,1.474,0.070634
102,1.475,0.037684
102,1.476,0.007013
102,1.477,-0.005576
102,1.478,-0.017592
102,1.479,-0.043455
102,1.48,-0.059135
102,1.481,-0.037682
102,1.482,-0.007228
102,1.483,-0.018123
102,1.484,-0.093876
102,1.485,-0.255972
102,1.486,-0.513784
102,1.487,-0.790224
102,1.488,-0.928582
102,1.489,-0.81643
102,1.49,-0.495073
102,1.491,-0.141022
102,1.492,0.068959
102,1.493,0.085227
102,1.494,-0.011178
102,1.495,-0.105103
102,1.496,-0.133677
102,1.497,-0.105281
102,1.498,-0.061308
102,1.499,-0.021285
102,1.5,0.030471
102,1.501,0.095709
102,1.502,0.123182
102,1.503,0.049847
102,1.504,-0.153618
102,1.505,-0.486777
102,1.506,-0.880227
102,1.507,-1.159718
102,1.508,-1.153322
102,1.509,-0.838564
102,1.51,-0.361343
102,1.511,0.0574
102,1.512,0.248712
102,1.513,0.184626
102,1.514,-0.037044
102,1.515,-0.277096
102,1.516,-0.416657
102,1.517,-0.396452
102,1.518,-0.244876
102,1.519,-0.044033
102,1.52,0.135318
102,1.521,0.244598
102,1.522,0.244688
102,1.523,0.147012
102,1.524,0.044067
102,1.525,0.052233
102,1.526,0.241051
102,1.527,0.522704
102,1.528,0.610726
102,1.529,0.377512
102,1.53,0.102881
102,1.531,0.053829
102,1.532,0.154175
102,1.533,0.211961
102,1.534,0.154266
102,1.535,0.024074
102,1.536,-0.092052
102,1.537,-0.12609
102,1.538,-0.07518
102,1.539,0.005773
102,1.54,0.071668
102,1.541,0.120083
102,1.542,0.147222
102,1.543,0.124758
102,1.544,0.030581
102,1.545,-0.094625
102,1.546,-0.08677
102,1.547,0.167957
102,1.548,0.454827
102,1.549,0.494093
102,1.55,0.359649
102,1.551,0.255469
102,1.552,0.192917
102,1.553,0.104355
102,1.554,0.008388
102,1.555,-0.016365
102,1.556,0.054794
102,1.557,0.139253
102,1.558,0.133226
102,1.559,0.037612
102,1.56,-0.044849
102,1.561,-0.041566
102,1.562,0.012589
102,1.563,0.04985
102,1.564,0.051225
102,1.565,0.05406
102,1.566,0.162418
102,1.567,0.411411
102,1.568,0.578258
102,1.569,0.460288
102,1.57,0.217467
102,1.571,0.08792
102,1.572,0.068816
102,1.573,0.064217
102,1.574,0.068503
102,1.575,0.131876
102,1.576,0.246673
102,1.577,0.318055
102,1.578,0.26006
102,1.579,0.099253
102,1.58,-0.044924
102,1.581,-0.088385
102,1.582,-0.059308
102,1.583,-0.032491
102,1.584,-0.057338
102,1.585,-0.150629
102,1.586,-0.252791
102,1.587,-0.265499
102,1.588,-0.209169
102,1.589,-0.16674
102,1.59,-0.113213
102,1.591,-0.004806
102,1.592,0.103683
102,1.593,0.154339
102,1.594,0.177436
102,1.595,0.242116
102,1.596,0.35053
102,1.597,0.408212
102,1.598,0.326344
102,1.599,0.136858
102,1.6,-0.029367
102,1.601,-0.08031
102,1.602,-0.045176
102,1.603,-0.012509
102,1.604,-0.06611
102,1.605,-0.278952
102,1.606,-0.631521
102,1.607,-0.945019
102,1.608,-1.013865
102,1.609,-0.79257
102,1.61,-0.411961
102,1.611,-0.060116
102,1.612,0.131603
102,1.613,0.149939
102,1.614,0.094065
102,1.615,0.089324
102,1.616,0.170335
102,1.617,0.247819
102,1.618,0.219537
102,1.619,0.100163
102,1.62,0.003084
102,1.621,0.002286
102,1.622,0.05744
102,1.623,0.079991
102,1.624,-0.008324
102,1.625,-0.272488
102,1.626,-0.680142
102,1.627,-1.035168
102,1.628,-1.115159
102,1.629,-0.866131
102,1.63,-0.42693
102,1.631,-0.008772
102,1.632,0.233728
102,1.633,0.273125
102,1.634,0.200908
102,1.635,0.144822
102,1.636,0.158773
102,1.637,0.183737
102,1.638,0.137603
102,1.639,0.028229
102,1.64,-0.052166
102,1.641,-0.040126
102,1.642,0.02702
102,1.643,0.074414
102,1.644,0.06912
102,1.645,0.039027
102,1.646,0.096375
102,1.647,0.3013
102,1.648,0.453882
102,1.649,0.355691
102,1.65,0.154424
102,1.651,0.061911
102,1.652,0.03885
102,1.653,-0.032116
102,1.654,-0.142145
102,1.655,-0.19512
102,1.656,-0.14244
102,1.657,-0.047228
102,1.658,-0.008596
102,1.659,-0.040521
102,1.66,-0.060701
102,1.661,-0.002706
102,1.662,0.102783
102,1.663,0.185405
102,1.664,0.212896
102,1.665,0.204442
102,1.666,0.249562
102,1.667,0.392144
102,1.668,0.455024
102,1.669,0.292889
102,1.67,0.088751
102,1.671,0.045276
102,1.672,0.090059
102,1.673,0.077037
102,1.674,-0.004592
102,1.675,-0.070597
102,1.676,-0.067051
102,1.677,-0.029054
102,1.678,-0.026796
102,1.679,-0.071444
102,1.68,-0.094044
102,1.681,-0.035403
102,1.682,0.073951
102,1.683,0.168188
102,1.684,0.228129
102,1.685,0.291345
102,1.686,0.446369
102,1.687,0.682804
102,1.688,0.736035
102,1.689,0.449576
102,1.69,0.109911
102,1.691,0.007342
102,1.692,0.055227
102,1.693,0.04829
102,1.694,-0.063475
102,1.695,-0.193675
102,1.696,-0.250807
102,1.697,-0.227022
102,1.698,-0.179962
102,1.699,-0.148208
102,1.7,-0.102972
102,1.701,-0.006949
102,1.702,0.112626
102,1.703,0.207325
102,1.704,0.27456
102,1.705,0.352318
102,1.706,0.507101
102,1.707,0.709141
102,1.708,0.710049
102,1.709,0.391948
102,1.71,0.058009
102,1.711,-0.019603
102,1.712,0.04929
102,1.713,0.059038
102,1.714,-0.024466
102,1.715,-0.110934
102,1.716,-0.127723
102,1.717,-0.088915
102,1.718,-0.05866
102,1.719,-0.066534
102,1.72,-0.067988
102,1.721,-0.014159
102,1.722,0.066105
102,1.723,0.107721
102,1.724,0.091716
102,1.725,0.069786
102,1.726,0.163332
102,1.727,0.395606
102,1.728,0.508076
102,1.729,0.318677
102,1.73,0.077641
102,1.731,0.044652
102,1.732,0.119919
102,1.733,0.10753
102,1.734,-0.024081
102,1.735,-0.175477
102,1.736,-0.244722
102,1.737,-0.213391
102,1.738,-0.139911
102,1.739,-0.079487
102,1.74,-0.02361
102,1.741,0.056951
102,1.742,0.140326
102,1.743,0.176855
102,1.744,0.141963
102,1.745,0.042438
102,1.746,-0.057956
102,1.747,-0.092164
102,1.748,-0.116358
102,1.749,-0.174555
102,1.75,-0.146287
102,1.751,0.016642
102,1.752,0.151516
102,1.753,0.117928
102,1.754,-0.041511
102,1.755,-0.18299
102,1.756,-0.206143
102,1.757,-0.125066
102,1.758,-0.02914
102,1.759,0.018748
102,1.76,0.037666
102,1.761,0.070469
102,1.762,0.107964
102,1.763,0.120729
102,1.764,0.120912
102,1.765,0.161553
102,1.766,0.322364
102,1.767,0.568176
102,1.768,0.623242
102,1.769,0.34994
102,1.77,0.053877
102,1.771,0.013591
102,1.772,0.114745
102,1.773,0.138648
102,1.774,0.047938
102,1.775,-0.04572
102,1.776,-0.042961
102,1.777,0.038249
102,1.778,0.102933
102,1.779,0.097151
102,1.78,0.057609
102,1.781,0.040645
102,1.782,0.043915
102,1.783,0.040008
102,1.784,0.039436
102,1.785,0.095358
102,1.786,0.29803
102,1.787,0.631154
102,1.788,0.8197
102,1.789,0.668453
102,1.79,0.387578
102,1.791,0.217142
102,1.792,0.103457
102,1.793,-0.05797
102,1.794,-0.195778
102,1.795,-0.166769
102,1.796,0.028507
102,1.797,0.205893
102,1.798,0.193094
102,1.799,0.020315
102,1.8,-0.121922
102,1.801,-0.096318
102,1.802,0.05565
102,1.803,0.193373
102,1.804,0.20327
102,1.805,0.09109
102,1.806,0.057426
102,1.807,0.271611
102,1.808,0.516803
102,1.809,0.49687
102,1.81,0.325653
102,1.811,0.234508
102,1.812,0.185894
102,1.813,0.058336
102,1.814,-0.117445
102,1.815,-0.205655
102,1.816,-0.140659
102,1.817,-0.016649
102,1.818,0.019663
102,1.819,-0.053185
102,1.82,-0.111555
102,1.821,-0.047182
102,1.822,0.111831
102,1.823,0.259477
102,1.824,0.312072
102,1.825,0.26994
102,1.826,0.281495
102,1.827,0.462996
102,1.828,0.605748
102,1.829,0.476475
102,1.83,0.244994
102,1.831,0.153125
102,1.832,0.142322
102,1.833,0.07422
102,1.834,-0.025595
102,1.835,-0.040837
102,1.836,0.05268
102,1.837,0.139706
102,1.838,0.10277
102,1.839,-0.034847
102,1.84,-0.129952
102,1.841,-0.078705
102,1.842,0.077661
102,1.843,0.215641
102,1.844,0.226744
102,1.845,0.086179
102,1.846,-0.057468
102,1.847,-0.024173
102,1.848,0.093039
102,1.849,0.106174
102,1.85,0.086364
102,1.851,0.148733
102,1.852,0.196419
102,1.853,0.116368
102,1.854,-0.036515
102,1.855,-0.127091
102,1.856,-0.106215
102,1.857,-0.050535
102,1.858,-0.053184
102,1.859,-0.108855
102,1.86,-0.119831
102,1.861,-0.019316
102,1.862,0.145427
102,1.863,0.279744
102,1.864,0.324481
102,1.865,0.290085
102,1.866,0.304439
102,1.867,0.455523
102,1.868,0.543762
102,1.869,0.382454
102,1.87,0.171635
102,1.871,0.130824
102,1.872,0.148542
102,1.873,0.040573
102,1.874,-0.178548
102,1.875,-0.340437
102,1.876,-0.322483
102,1.877,-0.182273
102,1.878,-0.075948
102,1.879,-0.064214
102,1.88,-0.060997
102,1.881,0.02133
102,1.882,0.159651
102,1.883,0.284742
102,1.884,0.361811
102,1.885,0.399825
102,1.886,0.479006
102,1.887,0.628703
102,1.888,0.64282
102,1.889,0.386804
102,1.89,0.117071
102,1.891,0.074902
102,1.892,0.144427
102,1.893,0.125615
102,1.894,0.004863
102,1.895,-0.090415
102,1.896,-0.074056
102,1.897,-0.001475
102,1.898,0.01588
102,1.899,-0.041945
102,1.9,-0.08374
102,1.901,-0.03453
102,1.902,0.070593
102,1.903,0.143633
102,1.904,0.124208
102,1.905,0.015451
102,1.906,-0.061262
102,1.907,0.011164
102,1.908,0.108779
102,1.909,0.075659
102,1.91,0.033958
102,1.911,0.115958
102,1.912,0.208115
102,1.913,0.167051
102,1.914,0.023229
102,1.915,-0.08095
102,1.916,-0.065701
102,1.917,0.005634
102,1.918,0.024753
102,1.919,-0.026637
102,1.92,-0.069171
102,1.921,-0.038201
102,1.922,0.040988
102,1.923,0.111523
102,1.924,0.153275
102,1.925,0.190798
102,1.926,0.313634
102,1.927,0.537564
102,1.928,0.619594
102,1.929,0.394727
102,1.93,0.115422
102,1.931,0.037732
102,1.932,0.070299
102,1.933,0.042741
102,1.934,-0.042402
102,1.935,-0.082575
102,1.936,-0.038761
102,1.937,0.025305
102,1.938,0.032242
102,1.939,-0.022627
102,1.94,-0.070415
102,1.941,-0.053613
102,1.942,0.006532
102,1.943,0.058339
102,1.944,0.084651
102,1.945,0.118021
102,1.946,0.260727
102,1.947,0.524861
102,1.948,0.641889
102,1.949,0.428196
102,1.95,0.142989
102,1.951,0.063796
102,1.952,0.111194
102,1.953,0.096671
102,1.954,-0.015856
102,1.955,-0.136867
102,1.956,-0.180463
102,1.957,-0.142265
102,1.958,-0.085283
102,1.959,-0.062477
102,1.96,-0.056661
102,1.961,-0.024211
102,1.962,0.029448
102,1.963,0.07616
102,1.964,0.116279
102,1.965,0.182988
102,1.966,0.357291
102,1.967,0.625156
102,1.968,0.713642
102,1.969,0.456407
102,1.97,0.131453
102,1.971,0.02374
102,1.972,0.051427
102,1.973,0.026341
102,1.974,-0.084452
102,1.975,-0.197599
102,1.976,-0.235544
102,1.977,-0.192054
102,1.978,-0.1248
102,1.979,-0.08672
102,1.98,-0.058954
102,1.981,0.01768
102,1.982,0.154694
102,1.983,0.30497
102,1.984,0.410561
102,1.985,0.467977
102,1.986,0.582819
102,1.987,0.779062
102,1.988,0.791616
102,1.989,0.458787
102,1.99,0.083608
102,1.991,-0.02691
102,1.992,0.039809
102,1.993,0.067042
102,1.994,-0.005569
102,1.995,-0.096874
102,1.996,-0.116802
102,1.997,-0.064937
102,1.998,-0.014222
102,1.999,-0.013159
102,2.0,-0.033803
102,2.001,-0.030143
102,2.002,0.000284
102,2.003,0.062217
102,2.004,0.196011
102,2.005,0.422259
102,2.006,0.725555
102,2.007,0.985494
102,2.008,0.922115
102,2.009,0.464291
102,2.01,-0.008987
102,2.011,-0.187165
102,2.012,-0.193272
102,2.013,-0.240001
102,2.014,-0.310036
102,2.015,-0.258247
102,2.016,-0.068656
102,2.017,0.085296
102,2.018,0.049554
102,2.019,-0.121421
102,2.02,-0.234877
102,2.021,-0.177371
102,2.022,-0.002157
102,2.023,0.179479
102,2.024,0.296683
102,2.025,0.353011
102,2.026,0.475179
102,2.027,0.735165
102,2.028,0.880159
102,2.029,0.664887
102,2.03,0.291354
102,2.031,0.057216
102,2.032,-0.051083
102,2.033,-0.166768
102,2.034,-0.302905
102,2.035,-0.387345
102,2.036,-0.381306
102,2.037,-0.305799
102,2.038,-0.199135
102,2.039,-0.094571
102,2.04,-0.011749
102,2.041,0.031135
102,2.042,0.00508
102,2.043,-0.085461
102,2.044,-0.187786
102,2.045,-0.221586
102,2.046,-0.043797
102,2.047,0.385087
102,2.048,0.736209
102,2.049,0.675674
102,2.05,0.362186
102,2.051,0.10955
102,2.052,-0.049912
102,2.053,-0.193984
102,2.054,-0.283493
102,2.055,-0.237464
102,2.056,-0.095251
102,2.057,-0.003261
102,2.058,-0.041856
102,2.059,-0.135892
102,2.06,-0.15201
102,2.061,-0.051019
102,2.062,0.086661
102,2.063,0.159548
102,2.064,0.084323
102,2.065,-0.200779
102,2.066,-0.621853
102,2.067,-0.940468
102,2.068,-0.965292
102,2.069,-0.716328
102,2.07,-0.350345
102,2.071,-0.023781
102,2.072,0.168537
102,2.073,0.216389
102,2.074,0.19302
102,2.075,0.195243
102,2.076,0.250887
102,2.077,0.291995
102,2.078,0.242747
102,2.079,0.121869
102,2.08,0.021803
102,2.081,-0.0126
102,2.082,-0.02511
102,2.083,-0.0636
102,2.084,-0.15734
102,2.085,-0.352171
102,2.086,-0.630122
102,2.087,-0.849138
102,2.088,-0.867362
102,2.089,-0.673659
102,2.09,-0.368594
102,2.091,-0.079968
102,2.092,0.101173
102,2.093,0.162342
102,2.094,0.167778
102,2.095,0.188885
102,2.096,0.227183
102,2.097,0.22658
102,2.098,0.157381
102,2.099,0.060626
102,2.1,0.001825
102,2.101,-0.012973
102,2.102,-0.036252
102,2.103,-0.087896
102,2.104,-0.157858
102,2.105,-0.283945
102,2.106,-0.493074
102,2.107,-0.700962
102,2.108,-0.775762
102,2.109,-0.664767
102,2.11,-0.419963
102,2.111,-0.143795
102,2.112,0.073136
102,2.113,0.195411
102,2.114,0.248373
102,2.115,0.273039
102,2.116,0.272362
102,2.117,0.222553
102,2.118,0.128545
102,2.119,0.037692
102,2.12,-0.007558
102,2.121,-0.02714
102,2.122,-0.082724
102,2.123,-0.1899
102,2.124,-0.325594
102,2.125,-0.502872
102,2.126,-0.716902
102,2.127,-0.867275
102,2.128,-0.845637
102,2.129,-0.650101
102,2.13,-0.371098
102,2.131,-0.119856
102,2.132,0.023562
102,2.133,0.045024
102,2.134,0.003221
102,2.135,-0.016245
102,2.136,0.02104
102,2.137,0.072715
102,2.138,0.088086
102,2.139,0.075507
102,2.14,0.069696
102,2.141,0.055202
102,2.142,-0.019799
102,2.143,-0.15462
102,2.144,-0.307411
102,2.145,-0.478124
102,2.146,-0.662579
102,2.147,-0.778884
102,2.148,-0.74367
102,2.149,-0.563199
102,2.15,-0.313515
102,2.151,-0.081912
102,2.152,0.070323
102,2.153,0.128648
102,2.154,0.128167
102,2.155,0.122948
102,2.156,0.136469
102,2.157,0.14837
102,2.158,0.13502
102,2.159,0.106337
102,2.16,0.083332
102,2.161,0.045932
102,2.162,-0.050673
102,2.163,-0.194868
102,2.164,-0.335119
102,2.165,-0.468984
102,2.166,-0.604454
102,2.167,-0.687615
102,2.168,-0.657436
102,2.169,-0.513363
102,2.17,-0.306118
102,2.171,-0.099978
102,2.172,0.05724
102,2.173,0.151292
102,2.174,0.204343
102,2.175,0.247177
102,2.176,0.278268
102,2.177,0.268612
102,2.178,0.207605
102,2.179,0.123296
102,2.18,0.049125
102,2.181,-0.024763
102,2.182,-0.133564
102,2.183,-0.256804
102,2.184,-0.336609
102,2.185,-0.380087
102,2.186,-0.435976
102,2.187,-0.504286
102,2.188,-0.538909
102,2.189,-0.496736
102,2.19,-0.37269
102,2.191,-0.207209
102,2.192,-0.056379
102,2.193,0.048167
102,2.194,0.109186
102,2.195,0.138145
102,2.196,0.139154
102,2.197,0.11964
102,2.198,0.092914
102,2.199,0.06882
102,2.2,0.046169
102,2.201,-0.00117
102,2.202,-0.103207
102,2.203,-0.224693
102,2.204,-0.287559
102,2.205,-0.275613
102,2.206,-0.225925
102,2.207,-0.175935
102,2.208,-0.175057
102,2.209,-0.230195
102,2.21,-0.257834
102,2.211,-0.195089
102,2.212,-0.080539
102,2.213,0.020034
102,2.214,0.080209
102,2.215,0.100849
102,2.216,0.093798
102,2.217,0.07753
102,2.218,0.064469
102,2.219,0.056624
102,2.22,0.04912
102,2.221,0.017631
102,2.222,-0.065488
102,2.223,-0.168041
102,2.224,-0.228369
102,2.225,-0.265158
102,2.226,-0.347952
102,2.227,-0.476584
102,2.228,-0.571422
102,2.229,-0.555438
102,2.23,-0.4149
102,2.231,-0.203365
102,2.232,-0.000743
102,2.233,0.13978
102,2.234,0.207048
102,2.235,0.208825
102,2.236,0.161309
102,2.237,0.096731
102,2.238,0.050761
102,2.239,0.037095
102,2.24,0.041812
102,2.241,0.024265
102,2.242,-0.053551
102,2.243,-0.160923
102,2.244,-0.233646
102,2.245,-0.287704
102,2.246,-0.390205
102,2.247,-0.538801
102,2.248,-0.648069
102,2.249,-0.627981
102,2.25,-0.454946
102,2.251,-0.190562
102,2.252,0.060683
102,2.253,0.214494
102,2.254,0.239098
102,2.255,0.157097
102,2.256,0.034272
102,2.257,-0.05078
102,2.258,-0.056305
102,2.259,-0.002413
102,2.26,0.055532
102,2.261,0.055427
102,2.262,-0.034311
102,2.263,-0.15205
102,2.264,-0.191503
102,2.265,-0.142946
102,2.266,-0.094649
102,2.267,-0.125678
102,2.268,-0.250873
102,2.269,-0.389107
102,2.27,-0.413217
102,2.271,-0.313329
102,2.272,-0.216381
102,2.273,-0.202428
102,2.274,-0.201237
102,2.275,-0.106177
102,2.276,0.059606
102,2.277,0.154477
102,2.278,0.098202
102,2.279,-0.026992
102,2.28,-0.085176
102,2.281,-0.049812
102,2.282,-0.003779
102,2.283,-0.01196
102,2.284,-0.089875
102,2.285,-0.241226
102,2.286,-0.39883
102,2.287,-0.435554
102,2.288,-0.333712
102,2.289,-0.195761
102,2.29,-0.087453
102,2.291,-0.023708
102,2.292,-0.028611
102,2.293,-0.096297
102,2.294,-0.154099
102,2.295,-0.126987
102,2.296,-0.032231
102,2.297,0.032847
102,2.298,0.011658
102,2.299,-0.044335
102,2.3,-0.053658
102,2.301,-0.019089
102,2.302,-0.014552
102,2.303,-0.076482
102,2.304,-0.185552
102,2.305,-0.30652
102,2.306,-0.347107
102,2.307,-0.221458
102,2.308,-0.030962
102,2.309,0.051552
102,2.31,0.031474
102,2.311,-0.003821
102,2.312,-0.054237
102,2.313,-0.132344
102,2.314,-0.178085
102,2.315,-0.129914
102,2.316,-0.023026
102,2.317,0.043876
102,2.318,0.029286
102,2.319,-0.012671
102,2.32,-0.016622
102,2.321,0.005218
102,2.322,-0.00787
102,2.323,-0.06395
102,2.324,-0.122201
102,2.325,-0.161142
102,2.326,-0.142428
102,2.327,-0.03199
102,2.328,0.073664
102,2.329,0.05995
102,2.33,-0.013539
102,2.331,-0.039781
102,2.332,-0.023109
102,2.333,0.001906
102,2.334,0.056723
102,2.335,0.159371
102,2.336,0.251975
102,2.337,0.252641
102,2.338,0.15456
102,2.339,0.030986
102,2.34,-0.046472
102,2.341,-0.081997
102,2.342,-0.132388
102,2.343,-0.21238
102,2.344,-0.287788
102,2.345,-0.328802
102,2.346,-0.282067
102,2.347,-0.121454
102,2.348,0.02713
102,2.349,0.032934
102,2.35,-0.038214
102,2.351,-0.071566
102,2.352,-0.07735
102,2.353,-0.106001
102,2.354,-0.142537
102,2.355,-0.137527
102,2.356,-0.081483
102,2.357,-0.016678
102,2.358,0.014502
102,2.359,0.015648
102,2.36,0.018469
102,2.361,0.021708
102,2.362,-0.008942
102,2.363,-0.072681
102,2.364,-0.150154
102,2.365,-0.270191
102,2.366,-0.445281
102,2.367,-0.593519
102,2.368,-0.612651
102,2.369,-0.484389
102,2.37,-0.278486
102,2.371,-0.09159
102,2.372,0.011325
102,2.373,0.033102
102,2.374,0.035594
102,2.375,0.074228
102,2.376,0.138445
102,2.377,0.167734
102,2.378,0.127877
102,2.379,0.055304
102,2.38,0.010064
102,2.381,-0.0037
102,2.382,-0.0324
102,2.383,-0.091752
102,2.384,-0.172571
102,2.385,-0.303497
102,2.386,-0.492026
102,2.387,-0.653001
102,2.388,-0.681625
102,2.389,-0.553629
102,2.39,-0.330131
102,2.391,-0.105533
102,2.392,0.04522
102,2.393,0.110874
102,2.394,0.150903
102,2.395,0.228527
102,2.396,0.318367
102,2.397,0.323611
102,2.398,0.210024
102,2.399,0.060526
102,2.4,-0.025965
102,2.401,-0.041921
102,2.402,-0.051226
102,2.403,-0.089923
102,2.404,-0.164668
102,2.405,-0.312396
102,2.406,-0.536964
102,2.407,-0.736465
102,2.408,-0.784675
102,2.409,-0.64455
102,2.41,-0.384018
102,2.411,-0.122616
102,2.412,0.043018
102,2.413,0.101007
102,2.414,0.11792
102,2.415,0.156478
102,2.416,0.20375
102,2.417,0.199036
102,2.418,0.122514
102,2.419,0.02643
102,2.42,-0.02263
102,2.421,-0.022647
102,2.422,-0.02863
102,2.423,-0.058768
102,2.424,-0.086416
102,2.425,-0.108744
102,2.426,-0.11986
102,2.427,-0.106355
102,2.428,-0.122883
102,2.429,-0.194353
102,2.43,-0.211293
102,2.431,-0.108308
102,2.432,0.017532
102,2.433,0.055301
102,2.434,0.00929
102,2.435,-0.030891
102,2.436,-0.004616
102,2.437,0.051395
102,2.438,0.065237
102,2.439,0.029042
102,2.44,-0.004492
102,2.441,-0.01314
102,2.442,-0.024666
102,2.443,-0.028041
102,2.444,0.030975
102,2.445,0.152123
102,2.446,0.285605
102,2.447,0.359039
102,2.448,0.256449
102,2.449,-0.011184
102,2.45,-0.209551
102,2.451,-0.188444
102,2.452,-0.058995
102,2.453,0.021836
102,2.454,0.01816
102,2.455,-0.025922
102,2.456,-0.065997
102,2.457,-0.083056
102,2.458,-0.079256
102,2.459,-0.064437
102,2.46,-0.041935
102,2.461,-0.027713
102,2.462,-0.049475
102,2.463,-0.084174
102,2.464,-0.068052
102,2.465,0.01108
102,2.466,0.120401
102,2.467,0.200626
102,2.468,0.135176
102,2.469,-0.078751
102,2.47,-0.225425
102,2.471,-0.169636
102,2.472,-0.025385
102,2.473,0.06332
102,2.474,0.078045
102,2.475,0.064929
102,2.476,0.053683
102,2.477,0.048263
102,2.478,0.038926
102,2.479,0.016801
102,2.48,-0.010593
102,2.481,-0.043705
102,2.482,-0.099577
102,2.483,-0.153264
102,2.484,-0.143884
102,2.485,-0.063414
102,2.486,0.050177
102,2.487,0.134248
102,2.488,0.075731
102,2.489,-0.121571
102,2.49,-0.244867
102,2.491,-0.171668
102,2.492,-0.024732
102,2.493,0.051955
102,2.494,0.045625
102,2.495,0.016055
102,2.496,0.005804
102,2.497,0.012797
102,2.498,0.010515
102,2.499,-0.011543
102,2.5,-0.028444
102,2.501,-0.025778
102,2.502,-0.023756
102,2.503,-0.014693
102,2.504,0.036818
102,2.505,0.113596
102,2.506,0.171892
102,2.507,0.175085
102,2.508,0.051586
102,2.509,-0.168376
102,2.51,-0.269595
102,2.511,-0.145689
102,2.512,0.045304
102,2.513,0.112463
102,2.514,0.015609
102,2.515,-0.155176
102,2.516,-0.274231
102,2.517,-0.273387
102,2.518,-0.179417
102,2.519,-0.063534
102,2.52,0.029744
102,2.521,0.07795
102,2.522,0.055314
102,2.523,-0.037219
102,2.524,-0.177056
102,2.525,-0.340537
102,2.526,-0.420433
102,2.527,-0.289107
102,2.528,-0.048163
102,2.529,0.090699
102,2.53,0.119125
102,2.531,0.110182
102,2.532,0.030637
102,2.533,-0.121211
102,2.534,-0.214288
102,2.535,-0.128085
102,2.536,0.075831
102,2.537,0.200962
102,2.538,0.13674
102,2.539,-0.028416
102,2.54,-0.126929
102,2.541,-0.092749
102,2.542,0.012099
102,2.543,0.102623
102,2.544,0.128972
102,2.545,0.095427
102,2.546,0.114833
102,2.547,0.272151
102,2.548,0.39434
102,2.549,0.295812
102,2.55,0.11119
102,2.551,0.02311
102,2.552,-0.014873
102,2.553,-0.083956
102,2.554,-0.125279
102,2.555,-0.050013
102,2.556,0.097693
102,2.557,0.171475
102,2.558,0.097267
102,2.559,-0.049447
102,2.56,-0.138955
102,2.561,-0.122073
102,2.562,-0.055465
102,2.563,-0.022293
102,2.564,-0.074947
102,2.565,-0.186677
102,2.566,-0.191646
102,2.567,0.024987
102,2.568,0.2572
102,2.569,0.259949
102,2.57,0.135357
102,2.571,0.069323
102,2.572,0.033822
102,2.573,-0.033611
102,2.574,-0.06056
102,2.575,0.042347
102,2.576,0.216063
102,2.577,0.296273
102,2.578,0.202987
102,2.579,0.019396
102,2.58,-0.111515
102,2.581,-0.125893
102,2.582,-0.062186
102,2.583,0.019315
102,2.584,0.077439
102,2.585,0.102166
102,2.586,0.168874
102,2.587,0.322596
102,2.588,0.389715
102,2.589,0.230657
102,2.59,0.026964
102,2.591,-0.029178
102,2.592,-0.01411
102,2.593,-0.062433
102,2.594,-0.16574
102,2.595,-0.230819
102,2.596,-0.208706
102,2.597,-0.139305
102,2.598,-0.09364
102,2.599,-0.090461
102,2.6,-0.084018
102,2.601,-0.036948
102,2.602,0.031325
102,2.603,0.080305
102,2.604,0.079219
102,2.605,0.03619
102,2.606,0.05756
102,2.607,0.211835
102,2.608,0.320983
102,2.609,0.218933
102,2.61,0.065629
102,2.611,0.047227
102,2.612,0.085423
102,2.613,0.04321
102,2.614,-0.068398
102,2.615,-0.143592
102,2.616,-0.119906
102,2.617,-0.043776
102,2.618,-0.007234
102,2.619,-0.033875
102,2.62,-0.060505
102,2.621,-0.031689
102,2.622,0.041429
102,2.623,0.123519
102,2.624,0.182286
102,2.625,0.198878
102,2.626,0.230649
102,2.627,0.321198
102,2.628,0.326536
102,2.629,0.144581
102,2.63,-0.029694
102,2.631,-0.02605
102,2.632,0.039944
102,2.633,0.008317
102,2.634,-0.111039
102,2.635,-0.201065
102,2.636,-0.187825
102,2.637,-0.110619
102,2.638,-0.057464
102,2.639,-0.055541
102,2.64,-0.052512
102,2.641,-0.003659
102,2.642,0.071612
102,2.643,0.130215
102,2.644,0.134568
102,2.645,0.076702
102,2.646,0.049525
102,2.647,0.131329
102,2.648,0.178738
102,2.649,0.064457
102,2.65,-0.039419
102,2.651,0.025555
102,2.652,0.141482
102,2.653,0.153479
102,2.654,0.081291
102,2.655,0.041253
102,2.656,0.075065
102,2.657,0.109086
102,2.658,0.071369
102,2.659,-0.014533
102,2.66,-0.066075
102,2.661,-0.042596
102,2.662,0.021436
102,2.663,0.075465
102,2.664,0.081768
102,2.665,0.027697
102,2.666,-0.006155
102,2.667,0.055447
102,2.668,0.085815
102,2.669,-0.022859
102,2.67,-0.098828
102,2.671,-0.003998
102,2.672,0.122879
102,2.673,0.117576
102,2.674,-0.005391
102,2.675,-0.125802
102,2.676,-0.159321
102,2.677,-0.117406
102,2.678,-0.065527
102,2.679,-0.040478
102,2.68,-0.020266
102,2.681,0.018598
102,2.682,0.059936
102,2.683,0.083516
102,2.684,0.077894
102,2.685,0.037256
102,2.686,0.020782
102,2.687,0.076886
102,2.688,0.080559
102,2.689,-0.048008
102,2.69,-0.115226
102,2.691,0.014489
102,2.692,0.179954
102,2.693,0.183466
102,2.694,0.013728
102,2.695,-0.196476
102,2.696,-0.304488
102,2.697,-0.26508
102,2.698,-0.146152
102,2.699,-0.039655
102,2.7,0.023614
102,2.701,0.053265
102,2.702,0.054687
102,2.703,0.044447
102,2.704,0.047079
102,2.705,0.07791
102,2.706,0.189741
102,2.707,0.376982
102,2.708,0.419165
102,2.709,0.197934
102,2.71,-0.015141
102,2.711,0.002538
102,2.712,0.097505
102,2.713,0.056723
102,2.714,-0.106017
102,2.715,-0.232795
102,2.716,-0.239064
102,2.717,-0.188771
102,2.718,-0.169921
102,2.719,-0.171836
102,2.72,-0.119394
102,2.721,0.01444
102,2.722,0.172337
102,2.723,0.262244
102,2.724,0.209933
102,2.725,0.049579
102,2.726,0.006691
102,2.727,0.243037
102,2.728,0.509444
102,2.729,0.492575
102,2.73,0.308272
102,2.731,0.190562
102,2.732,0.113421
102,2.733,-0.009346
102,2.734,-0.120221
102,2.735,-0.122613
102,2.736,-0.026142
102,2.737,0.076592
102,2.738,0.122398
102,2.739,0.119009
102,2.74,0.105241
102,2.741,0.104887
102,2.742,0.118548
102,2.743,0.132153
102,2.744,0.109018
102,2.745,0.049886
102,2.746,0.098738
102,2.747,0.349155
102,2.748,0.550199
102,2.749,0.444895
102,2.75,0.205223
102,2.751,0.083463
102,2.752,0.041112
102,2.753,-0.027914
102,2.754,-0.078972
102,2.755,-0.02173
102,2.756,0.118601
102,2.757,0.209868
102,2.758,0.157843
102,2.759,0.007312
102,2.76,-0.112643
102,2.761,-0.123134
102,2.762,-0.040567
102,2.763,0.082974
102,2.764,0.199304
102,2.765,0.294005
102,2.766,0.420628
102,2.767,0.561906
102,2.768,0.521882
102,2.769,0.239161
102,2.77,-0.022703
102,2.771,-0.072301
102,2.772,-0.02975
102,2.773,-0.052293
102,2.774,-0.11553
102,2.775,-0.10197
102,2.776,0.015416
102,2.777,0.124682
102,2.778,0.111822
102,2.779,-0.002279
102,2.78,-0.099485
102,2.781,-0.1024
102,2.782,-0.028877
102,2.783,0.055522
102,2.784,0.077514
102,2.785,0.014778
102,2.786,-0.018224
102,2.787,0.083977
102,2.788,0.173833
102,2.789,0.087246
102,2.79,-0.031978
102,2.791,-0.015003
102,2.792,0.050341
102,2.793,0.034736
102,2.794,-0.025065
102,2.795,-0.010456
102,2.796,0.096841
102,2.797,0.178897
102,2.798,0.136128
102,2.799,0.009689
102,2.8,-0.08124
102,2.801,-0.073484
102,2.802,0.004272
102,2.803,0.085823
102,2.804,0.098805
102,2.805,0.017473
102,2.806,-0.042523
102,2.807,0.035105
102,2.808,0.113315
102,2.809,0.033163
102,2.81,-0.062505
102,2.811,-0.017614
102,2.812,0.060307
102,2.813,0.025597
102,2.814,-0.092987
102,2.815,-0.163336
102,2.816,-0.121408
102,2.817,-0.034373
102,2.818,0.002577
102,2.819,-0.017016
102,2.82,-0.024893
102,2.821,0.020693
102,2.822,0.091479
102,2.823,0.126113
102,2.824,0.055351
102,2.825,-0.139834
102,2.826,-0.330418
102,2.827,-0.360824
102,2.828,-0.287919
102,2.829,-0.233975
102,2.83,-0.140228
102,2.831,0.041077
102,2.832,0.18155
102,2.833,0.176469
102,2.834,0.086559
102,2.835,0.033928
102,2.836,0.055777
102,2.837,0.089154
102,2.838,0.070545
102,2.839,0.01379
102,2.84,-0.016666
102,2.841,0.008448
102,2.842,0.059109
102,2.843,0.092577
102,2.844,0.069988
102,2.845,-0.01578
102,2.846,-0.065548
102,2.847,0.00581
102,2.848,0.060771
102,2.849,-0.026545
102,2.85,-0.091781
102,2.851,0.011484
102,2.852,0.159017
102,2.853,0.193941
102,2.854,0.121243
102,2.855,0.032528
102,2.856,-0.012533
102,2.857,-0.016446
102,2.858,-0.013165
102,2.859,-0.019592
102,2.86,-0.017675
102,2.861,0.003071
102,2.862,0.019437
102,2.863,0.00034
102,2.864,-0.081137
102,2.865,-0.21269
102,2.866,-0.271449
102,2.867,-0.161277
102,2.868,-0.035538
102,2.869,-0.053668
102,2.87,-0.077955
102,2.871,0.031675
102,2.872,0.162417
102,2.873,0.180032
102,2.874,0.114367
102,2.875,0.068775
102,2.876,0.087158
102,2.877,0.128678
102,2.878,0.13043
102,2.879,0.080604
102,2.88,0.022892
102,2.881,-0.009592
102,2.882,-0.023388
102,2.883,-0.031748
102,2.884,-0.052098
102,2.885,-0.097449
102,2.886,-0.103418
102,2.887,-0.015829
102,2.888,0.029829
102,2.889,-0.069021
102,2.89,-0.135558
102,2.891,-0.028307
102,2.892,0.121219
102,2.893,0.155294
102,2.894,0.08803
102,2.895,0.02679
102,2.896,0.03556
102,2.897,0.090312
102,2.898,0.123634
102,2.899,0.099689
102,2.9,0.042818
102,2.901,-0.010335
102,2.902,-0.050093
102,2.903,-0.080373
102,2.904,-0.125202
102,2.905,-0.216809
102,2.906,-0.30826
102,2.907,-0.323155
102,2.908,-0.313265
102,2.909,-0.326922
102,2.91,-0.247478
102,2.911,-0.019365
102,2.912,0.208679
102,2.913,0.297217
102,2.914,0.270808
102,2.915,0.234475
102,2.916,0.234385
102,2.917,0.225191
102,2.918,0.149763
102,2.919,0.024045
102,2.92,-0.077826
102,2.921,-0.111049
102,2.922,-0.083402
102,2.923,-0.003465
102,2.924,0.123143
102,2.925,0.27118
102,2.926,0.42243
102,2.927,0.506166
102,2.928,0.364641
102,2.929,0.027531
102,2.93,-0.210241
102,2.931,-0.226021
102,2.932,-0.214948
102,2.933,-0.317787
102,2.934,-0.428056
102,2.935,-0.387118
102,2.936,-0.216448
102,2.937,-0.089689
102,2.938,-0.107594
102,2.939,-0.188298
102,2.94,-0.188313
102,2.941,-0.06267
102,2.942,0.112395
102,2.943,0.210113
102,2.944,0.133125
102,2.945,-0.05952
102,2.946,-0.110569
102,2.947,0.118429
102,2.948,0.372452
102,2.949,0.382659
102,2.95,0.251588
102,2.951,0.150493
102,2.952,0.041735
102,2.953,-0.124962
102,2.954,-0.258338
102,2.955,-0.253049
102,2.956,-0.143286
102,2.957,-0.062394
102,2.958,-0.082372
102,2.959,-0.143804
102,2.96,-0.138085
102,2.961,-0.025144
102,2.962,0.139476
102,2.963,0.250174
102,2.964,0.205776
102,2.965,0.015391
102,2.966,-0.129514
102,2.967,-0.080852
102,2.968,0.010849
102,2.969,-0.019507
102,2.97,-0.037307
102,2.971,0.085526
102,2.972,0.212725
102,2.973,0.174182
102,2.974,-0.030458
102,2.975,-0.271656
102,2.976,-0.395928
102,2.977,-0.328848
102,2.978,-0.135219
102,2.979,0.048528
102,2.98,0.142699
102,2.981,0.15239
102,2.982,0.118539
102,2.983,0.09147
102,2.984,0.105415
102,2.985,0.174865
102,2.986,0.319688
102,2.987,0.463959
102,2.988,0.400436
102,2.989,0.121041
102,2.99,-0.063143
102,2.991,0.027779
102,2.992,0.224786
102,2.993,0.312599
102,2.994,0.249347
102,2.995,0.115494
102,2.996,0.013025
102,2.997,-0.007576
102,2.998,0.013736
102,2.999,0.007636
102,3.0,-0.019911
102,3.001,-0.003064
102,3.002,0.079967
102,3.003,0.165638
102,3.004,0.160232
102,3.005,0.076388
102,3.006,0.091541
102,3.007,0.28646
102,3.008,0.427894
102,3.009,0.32337
102,3.01,0.133464
102,3.011,0.035795
102,3.012,-0.029455
102,3.013,-0.125338
102,3.014,-0.168477
102,3.015,-0.076881
102,3.016,0.08969
102,3.017,0.18157
102,3.018,0.118675
102,3.019,-0.027814
102,3.02,-0.116129
102,3.021,-0.072886
102,3.022,0.067807
102,3.023,0.215868
102,3.024,0.277244
102,3.025,0.245191
102,3.026,0.25778
102,3.027,0.381765
102,3.028,0.421107
102,3.029,0.245589
102,3.03,0.056413
102,3.031,0.026526
102,3.032,0.053465
102,3.033,0.014223
102,3.034,-0.044275
102,3.035,-0.020752
102,3.036,0.070979
102,3.037,0.113986
102,3.038,0.041858
102,3.039,-0.083036
102,3.04,-0.143659
102,3.041,-0.085831
102,3.042,0.04911
102,3.043,0.168352
102,3.044,0.178759
102,3.045,0.089046
102,3.046,0.068465
102,3.047,0.205724
102,3.048,0.29661
102,3.049,0.185434
102,3.05,0.050555
102,3.051,0.048944
102,3.052,0.073296
102,3.053,0.007841
102,3.054,-0.093253
102,3.055,-0.123859
102,3.056,-0.078528
102,3.057,-0.04077
102,3.058,-0.063251
102,3.059,-0.108988
102,3.06,-0.101501
102,3.061,-0.010964
102,3.062,0.120475
102,3.063,0.213301
102,3.064,0.191831
102,3.065,0.077497
102,3.066,0.04188
102,3.067,0.172357
102,3.068,0.268638
102,3.069,0.178335
102,3.07,0.07044
102,3.071,0.082648
102,3.072,0.093051
102,3.073,-0.015855
102,3.074,-0.177162
102,3.075,-0.25447
102,3.076,-0.206528
102,3.077,-0.112719
102,3.078,-0.062756
102,3.079,-0.055513
102,3.08,-0.023673
102,3.081,0.064267
102,3.082,0.163535
102,3.083,0.18949
102,3.084,0.07564
102,3.085,-0.118816
102,3.086,-0.17433
102,3.087,0.012683
102,3.088,0.209665
102,3.089,0.21325
102,3.09,0.162521
102,3.091,0.197684
102,3.092,0.214178
102,3.093,0.104447
102,3.094,-0.066927
102,3.095,-0.166128
102,3.096,-0.142558
102,3.097,-0.061968
102,3.098,-0.013979
102,3.099,-0.008309
102,3.1,0.01507
102,3.101,0.087429
102,3.102,0.167593
102,3.103,0.178196
102,3.104,0.062772
102,3.105,-0.115011
102,3.106,-0.144417
102,3.107,0.059876
102,3.108,0.254245
102,3.109,0.240939
102,3.11,0.169213
102,3.111,0.186028
102,3.112,0.195469
102,3.113,0.096634
102,3.114,-0.056114
102,3.115,-0.156634
102,3.116,-0.165373
102,3.117,-0.117427
102,3.118,-0.068558
102,3.119,-0.037468
102,3.12,0.004531
102,3.121,0.078411
102,3.122,0.157755
102,3.123,0.185352
102,3.124,0.10624
102,3.125,-0.056125
102,3.126,-0.153554
102,3.127,-0.096869
102,3.128,-0.013599
102,3.129,-0.005726
102,3.13,0.025529
102,3.131,0.129492
102,3.132,0.191684
102,3.133,0.146618
102,3.134,0.06984
102,3.135,0.048327
102,3.136,0.080089
102,3.137,0.104571
102,3.138,0.075075
102,3.139,0.006182
102,3.14,-0.037816
102,3.141,-0.015504
102,3.142,0.053392
102,3.143,0.123776
102,3.144,0.164288
102,3.145,0.198747
102,3.146,0.293547
102,3.147,0.393695
102,3.148,0.322885
102,3.149,0.101856
102,3.15,-0.030055
102,3.151,0.001092
102,3.152,0.029609
102,3.153,-0.058382
102,3.154,-0.193126
102,3.155,-0.240752
102,3.156,-0.15419
102,3.157,-0.016483
102,3.158,0.052733
102,3.159,0.028695
102,3.16,-0.010138
102,3.161,0.005064
102,3.162,0.068281
102,3.163,0.13968
102,3.164,0.199772
102,3.165,0.292123
102,3.166,0.492194
102,3.167,0.707936
102,3.168,0.673364
102,3.169,0.363932
102,3.17,0.097453
102,3.171,0.051957
102,3.172,0.075834
102,3.173,0.000875
102,3.174,-0.151009
102,3.175,-0.245334
102,3.176,-0.204235
102,3.177,-0.089525
102,3.178,-0.016389
102,3.179,-0.016559
102,3.18,-0.025918
102,3.181,0.014534
102,3.182,0.100829
102,3.183,0.202711
102,3.184,0.303798
102,3.185,0.43017
102,3.186,0.628861
102,3.187,0.7995
102,3.188,0.699312
102,3.189,0.33662
102,3.19,0.045065
102,3.191,-0.003272
102,3.192,0.033619
102,3.193,-0.004553
102,3.194,-0.097907
102,3.195,-0.150828
102,3.196,-0.126286
102,3.197,-0.070731
102,3.198,-0.047076
102,3.199,-0.06251
102,3.2,-0.06519
102,3.201,-0.013184
102,3.202,0.085433
102,3.203,0.208145
102,3.204,0.343869
102,3.205,0.50502
102,3.206,0.711338
102,3.207,0.848368
102,3.208,0.690267
102,3.209,0.282131
102,3.21,-0.01763
102,3.211,-0.041555
102,3.212,0.032264
102,3.213,0.021263
102,3.214,-0.076684
102,3.215,-0.172794
102,3.216,-0.20274
102,3.217,-0.168018
102,3.218,-0.116165
102,3.219,-0.080436
102,3.22,-0.041697
102,3.221,0.025484
102,3.222,0.108012
102,3.223,0.181015
102,3.224,0.233653
102,3.225,0.28696
102,3.226,0.376944
102,3.227,0.427498
102,3.228,0.285434
102,3.229,0.024522
102,3.23,-0.080339
102,3.231,0.031305
102,3.232,0.139799
102,3.233,0.059408
102,3.234,-0.192327
102,3.235,-0.450507
102,3.236,-0.542714
102,3.237,-0.429159
102,3.238,-0.22059
102,3.239,-0.042493
102,3.24,0.07335
102,3.241,0.147576
102,3.242,0.192302
102,3.243,0.222497
102,3.244,0.261581
102,3.245,0.334634
102,3.246,0.448046
102,3.247,0.498261
102,3.248,0.334906
102,3.249,0.045486
102,3.25,-0.09931
102,3.251,-0.050521
102,3.252,-0.001672
102,3.253,-0.050979
102,3.254,-0.106144
102,3.255,-0.079084
102,3.256,-0.017098
102,3.257,-0.021526
102,3.258,-0.108706
102,3.259,-0.184103
102,3.26,-0.143748
102,3.261,0.014304
102,3.262,0.19175
102,3.263,0.266867
102,3.264,0.174441
102,3.265,0.010614
102,3.266,0.004435
102,3.267,0.207506
102,3.268,0.372369
102,3.269,0.340559
102,3.27,0.241279
102,3.271,0.177932
102,3.272,0.08922
102,3.273,-0.044145
102,3.274,-0.124626
102,3.275,-0.088182
102,3.276,-0.002206
102,3.277,0.020321
102,3.278,-0.04722
102,3.279,-0.122889
102,3.28,-0.111709
102,3.281,-0.005801
102,3.282,0.12113
102,3.283,0.181869
102,3.284,0.132435
102,3.285,0.051182
102,3.286,0.11565
102,3.287,0.332111
102,3.288,0.451282
102,3.289,0.353208
102,3.29,0.20656
102,3.291,0.125236
102,3.292,0.027727
102,3.293,-0.136864
102,3.294,-0.273574
102,3.295,-0.271661
102,3.296,-0.153749
102,3.297,-0.048252
102,3.298,-0.034064
102,3.299,-0.065185
102,3.3,-0.053496
102,3.301,0.021331
102,3.302,0.108903
102,3.303,0.149605
102,3.304,0.119952
102,3.305,0.095772
102,3.306,0.22293
102,3.307,0.46504
102,3.308,0.555345
102,3.309,0.397267
102,3.31,0.203559
102,3.311,0.124757
102,3.312,0.08702
102,3.313,0.010728
102,3.314,-0.053912
102,3.315,-0.026199
102,3.316,0.067251
102,3.317,0.113103
102,3.318,0.053978
102,3.319,-0.048517
102,3.32,-0.100591
102,3.321,-0.079115
102,3.322,-0.020625
102,3.323,0.050475
102,3.324,0.153441
102,3.325,0.364055
102,3.326,0.724319
102,3.327,1.026595
102,3.328,0.943543
102,3.329,0.509945
102,3.33,0.102653
102,3.331,-0.0745
102,3.332,-0.120348
102,3.333,-0.14744
102,3.334,-0.138899
102,3.335,-0.055345
102,3.336,0.054836
102,3.337,0.094161
102,3.338,0.032403
102,3.339,-0.056423
102,3.34,-0.078499
102,3.341,-0.017319
102,3.342,0.062485
102,3.343,0.05951
102,3.344,-0.132758
102,3.345,-0.53659
102,3.346,-0.995809
102,3.347,-1.26418
102,3.348,-1.200769
102,3.349,-0.852099
102,3.35,-0.398365
102,3.351,-0.037483
102,3.352,0.135413
102,3.353,0.17242
102,3.354,0.186713
102,3.355,0.219665
102,3.356,0.230415
102,3.357,0.191721
102,3.358,0.126411
102,3.359,0.070512
102,3.36,0.03814
102,3.361,0.006748
102,3.362,-0.061964
102,3.363,-0.199148
102,3.364,-0.438773
102,3.365,-0.7741
102,3.366,-1.084544
102,3.367,-1.198388
102,3.368,-1.036625
102,3.369,-0.667895
102,3.37,-0.266887
102,3.371,-0.019634
102,3.372,-0.004414
102,3.373,-0.141548
102,3.374,-0.286015
102,3.375,-0.350293
102,3.376,-0.316169
102,3.377,-0.198438
102,3.378,-0.037409
102,3.379,0.118003
102,3.38,0.229945
102,3.381,0.263346
102,3.382,0.18625
102,3.383,-0.025662
102,3.384,-0.393164
102,3.385,-0.863915
102,3.386,-1.241932
102,3.387,-1.304994
102,3.388,-1.003767
102,3.389,-0.503167
102,3.39,-0.060331
102,3.391,0.129838
102,3.392,0.050585
102,3.393,-0.134851
102,3.394,-0.256577
102,3.395,-0.285676
102,3.396,-0.259997
102,3.397,-0.177269
102,3.398,-0.027101
102,3.399,0.156563
102,3.4,0.307163
102,3.401,0.361115
102,3.402,0.305574
102,3.403,0.201815
102,3.404,0.137949
102,3.405,0.186506
102,3.406,0.360446
102,3.407,0.520652
102,3.408,0.478793
102,3.409,0.278238
102,3.41,0.139091
102,3.411,0.128053
102,3.412,0.129949
102,3.413,0.069636
102,3.414,-0.024136
102,3.415,-0.09772
102,3.416,-0.114853
102,3.417,-0.067535
102,3.418,0.018739
102,3.419,0.107091
102,3.42,0.166545
102,3.421,0.170133
102,3.422,0.133699
102,3.423,0.156064
102,3.424,0.346635
102,3.425,0.708874
102,3.426,1.076517
102,3.427,1.143313
102,3.428,0.753207
102,3.429,0.189238
102,3.43,-0.104884
102,3.431,-0.009018
102,3.432,0.279892
102,3.433,0.550928
102,3.434,0.734391
102,3.435,0.850319
102,3.436,0.884799
102,3.437,0.770501
102,3.438,0.489388
102,3.439,0.133321
102,3.44,-0.171912
102,3.441,-0.365263
102,3.442,-0.409342
102,3.443,-0.200845
102,3.444,0.337852
102,3.445,1.062378
102,3.446,1.561553
102,3.447,1.395115
102,3.448,0.576533
102,3.449,-0.299278
102,3.45,-0.687908
102,3.451,-0.607492
102,3.452,-0.385081
102,3.453,-0.225691
102,3.454,-0.113513
102,3.455,0.025407
102,3.456,0.151203
102,3.457,0.145954
102,3.458,-0.011824
102,3.459,-0.19675
102,3.46,-0.275339
102,3.461,-0.237321
102,3.462,-0.164156
102,3.463,-0.140678
102,3.464,-0.226638
102,3.465,-0.411201
102,3.466,-0.590027
102,3.467,-0.667831
102,3.468,-0.622553
102,3.469,-0.465288
102,3.47,-0.247813
102,3.471,-0.063728
102,3.472,0.035518
102,3.473,0.096824
102,3.474,0.209372
102,3.475,0.372415
102,3.476,0.456095
102,3.477,0.349871
102,3.478,0.105052
102,3.479,-0.114712
102,3.48,-0.200356
102,3.481,-0.181206
102,3.482,-0.143707
102,3.483,-0.135121
102,3.484,-0.163843
102,3.485,-0.201979
102,3.486,-0.212634
102,3.487,-0.233336
102,3.488,-0.298115
102,3.489,-0.318052
102,3.49,-0.222267
102,3.491,-0.08605
102,3.492,-0.01574
102,3.493,-0.022318
102,3.494,-0.034239
102,3.495,-0.000948
102,3.496,0.042816
102,3.497,0.033484
102,3.498,-0.030144
102,3.499,-0.079736
102,3.5,-0.065723
102,3.501,-0.025179
102,3.502,-0.037901
102,3.503,-0.168308
102,3.504,-0.455413
102,3.505,-0.846546
102,3.506,-1.145287
102,3.507,-1.153582
102,3.508,-0.861645
102,3.509,-0.437417
102,3.51,-0.077392
102,3.511,0.102227
102,3.512,0.098199
102,3.513,0.005968
102,3.514,-0.05124
102,3.515,-0.027089
102,3.516,0.022346
102,3.517,0.029945
102,3.518,0.002542
102,3.519,-6.5e-05
102,3.52,0.0464
102,3.521,0.091036
102,3.522,0.065271
102,3.523,-0.070907
102,3.524,-0.341485
102,3.525,-0.702912
102,3.526,-0.983487
102,3.527,-1.002507
102,3.528,-0.74517
102,3.529,-0.360163
102,3.53,-0.029556
102,3.531,0.135592
102,3.532,0.135132
102,3.533,0.064643
102,3.534,0.03237
102,3.535,0.059142
102,3.536,0.084713
102,3.537,0.066121
102,3.538,0.026759
102,3.539,0.01683
102,3.54,0.045956
102,3.541,0.064705
102,3.542,0.02801
102,3.543,-0.056734
102,3.544,-0.155413
102,3.545,-0.209638
102,3.546,-0.173225
102,3.547,-0.114516
102,3.548,-0.117482
102,3.549,-0.12078
102,3.55,-0.048371
102,3.551,0.048736
102,3.552,0.092087
102,3.553,0.093343
102,3.554,0.131913
102,3.555,0.239977
102,3.556,0.339972
102,3.557,0.328821
102,3.558,0.203047
102,3.559,0.058717
102,3.56,-0.028039
102,3.561,-0.071128
102,3.562,-0.105354
102,3.563,-0.108858
102,3.564,-0.025886
102,3.565,0.193194
102,3.566,0.505459
102,3.567,0.677495
102,3.568,0.515582
102,3.569,0.175694
102,3.57,-0.045774
102,3.571,-0.080616
102,3.572,-0.052327
102,3.573,-0.050196
102,3.574,-0.048587
102,3.575,0.012941
102,3.576,0.117622
102,3.577,0.171811
102,3.578,0.122781
102,3.579,0.02371
102,3.58,-0.047699
102,3.581,-0.079928
102,3.582,-0.094073
102,3.583,-0.085338
102,3.584,-0.046888
102,3.585,0.015519
102,3.586,0.071409
102,3.587,0.032214
102,3.588,-0.124011
102,3.589,-0.248973
102,3.59,-0.222858
102,3.591,-0.11224
102,3.592,-0.039295
102,3.593,-0.032735
102,3.594,-0.035746
102,3.595,-0.001947
102,3.596,0.043789
102,3.597,0.048643
102,3.598,0.009013
102,3.599,-0.027679
102,3.6,-0.030046
102,3.601,-0.020944
102,3.602,-0.02739
102,3.603,-0.03269
102,3.604,-0.007707
102,3.605,0.074694
102,3.606,0.214186
102,3.607,0.296311
102,3.608,0.197795
102,3.609,0.00855
102,3.61,-0.078258
102,3.611,-0.034151
102,3.612,0.025565
102,3.613,0.019724
102,3.614,-0.04384
102,3.615,-0.117105
102,3.616,-0.158016
102,3.617,-0.150829
102,3.618,-0.107408
102,3.619,-0.044898
102,3.62,0.021713
102,3.621,0.061924
102,3.622,0.052002
102,3.623,-0.002979
102,3.624,-0.101473
102,3.625,-0.234607
102,3.626,-0.35917
102,3.627,-0.444278
102,3.628,-0.466358
102,3.629,-0.374243
102,3.63,-0.175985
102,3.631,0.011671
102,3.632,0.075934
102,3.633,0.005669
102,3.634,-0.133003
102,3.635,-0.259682
102,3.636,-0.310943
102,3.637,-0.262673
102,3.638,-0.143415
102,3.639,-0.003989
102,3.64,0.109068
102,3.641,0.153136
102,3.642,0.12281
102,3.643,0.066878
102,3.644,0.031506
102,3.645,0.029847
102,3.646,0.032824
102,3.647,-0.04291
102,3.648,-0.200493
102,3.649,-0.278903
102,3.65,-0.175457
102,3.651,0.004287
102,3.652,0.108091
102,3.653,0.095567
102,3.654,0.016847
102,3.655,-0.071411
102,3.656,-0.130931
102,3.657,-0.132526
102,3.658,-0.0721
102,3.659,0.02322
102,3.66,0.106905
102,3.661,0.127634
102,3.662,0.069578
102,3.663,-0.042216
102,3.664,-0.1853
102,3.665,-0.302969
102,3.666,-0.297402
102,3.667,-0.180544
102,3.668,-0.064408
102,3.669,0.018787
102,3.67,0.081511
102,3.671,0.075456
102,3.672,-0.032993
102,3.673,-0.172586
102,3.674,-0.217309
102,3.675,-0.128108
102,3.676,-0.009093
102,3.677,0.014588
102,3.678,-0.056111
102,3.679,-0.109516
102,3.68,-0.071868
102,3.681,0.016112
102,3.682,0.078696
102,3.683,0.081684
102,3.684,0.036253
102,3.685,0.029885
102,3.686,0.1457
102,3.687,0.267811
102,3.688,0.231819
102,3.689,0.111728
102,3.69,0.050888
102,3.691,0.019901
102,3.692,-0.074994
102,3.693,-0.222987
102,3.694,-0.309676
102,3.695,-0.253916
102,3.696,-0.117654
102,3.697,-0.033089
102,3.698,-0.041362
102,3.699,-0.067421
102,3.7,-0.046152
102,3.701,0.004127
102,3.702,0.049495
102,3.703,0.095166
102,3.704,0.155781
102,3.705,0.261266
102,3.706,0.410154
102,3.707,0.455908
102,3.708,0.287096
102,3.709,0.056059
102,3.71,-0.051389
102,3.711,-0.062421
102,3.712,-0.086102
102,3.713,-0.134158
102,3.714,-0.131933
102,3.715,-0.048349
102,3.716,0.043605
102,3.717,0.057294
102,3.718,-0.005216
102,3.719,-0.069134
102,3.72,-0.085381
102,3.721,-0.074226
102,3.722,-0.060858
102,3.723,-0.032572
102,3.724,0.031896
102,3.725,0.169833
102,3.726,0.369531
102,3.727,0.451446
102,3.728,0.282965
102,3.729,0.029758
102,3.73,-0.092448
102,3.731,-0.093216
102,3.732,-0.088807
102,3.733,-0.113185
102,3.734,-0.108323
102,3.735,-0.038528
102,3.736,0.041887
102,3.737,0.057421
102,3.738,0.00634
102,3.739,-0.048215
102,3.74,-0.066431
102,3.741,-0.067208
102,3.742,-0.064465
102,3.743,-0.034952
102,3.744,0.041765
102,3.745,0.19191
102,3.746,0.393212
102,3.747,0.463472
102,3.748,0.275246
102,3.749,0.007028
102,3.75,-0.109016
102,3.751,-0.076974
102,3.752,-0.028362
102,3.753,-0.030034
102,3.754,-0.057168
102,3.755,-0.069885
102,3.756,-0.06463
102,3.757,-0.058805
102,3.758,-0.059036
102,3.759,-0.053958
102,3.76,-0.04205
102,3.761,-0.044303
102,3.762,-0.055635
102,3.763,-0.032297
102,3.764,0.053835
102,3.765,0.220404
102,3.766,0.43351
102,3.767,0.512368
102,3.768,0.338837
102,3.769,0.087921
102,3.77,-0.028436
102,3.771,-0.02703
102,3.772,-0.020586
102,3.773,-0.032516
102,3.774,-0.009574
102,3.775,0.063256
102,3.776,0.128328
102,3.777,0.130514
102,3.778,0.078162
102,3.779,0.023314
102,3.78,-0.008368
102,3.781,-0.03952
102,3.782,-0.075091
102,3.783,-0.082405
102,3.784,-0.049234
102,3.785,0.028593
102,3.786,0.141235
102,3.787,0.181661
102,3.788,0.067415
102,3.789,-0.087462
102,3.79,-0.129678
102,3.791,-0.062856
102,3.792,0.019421
102,3.793,0.072499
102,3.794,0.121711
102,3.795,0.183533
102,3.796,0.222001
102,3.797,0.196076
102,3.798,0.113036
102,3.799,0.019901
102,3.8,-0.05436
102,3.801,-0.118028
102,3.802,-0.161841
102,3.803,-0.163101
102,3.804,-0.163688
102,3.805,-0.232362
102,3.806,-0.355717
102,3.807,-0.456303
102,3.808,-0.479884
102,3.809,-0.417675
102,3.81,-0.290435
102,3.811,-0.145868
102,3.812,-0.034171
102,3.813,0.050702
102,3.814,0.168285
102,3.815,0.328852
102,3.816,0.439314
102,3.817,0.405351
102,3.818,0.247642
102,3.819,0.06825
102,3.82,-0.069184
102,3.821,-0.173362
102,3.822,-0.25317
102,3.823,-0.308141
102,3.824,-0.387975
102,3.825,-0.528024
102,3.826,-0.656844
102,3.827,-0.683141
102,3.828,-0.603701
102,3.829,-0.460146
102,3.83,-0.275588
102,3.831,-0.078271
102,3.832,0.082332
102,3.833,0.186154
102,3.834,0.266526
102,3.835,0.345043
102,3.836,0.381085
102,3.837,0.328725
102,3.838,0.207156
102,3.839,0.077726
102,3.84,-0.030853
102,3.841,-0.136399
102,3.842,-0.241957
102,3.843,-0.342119
102,3.844,-0.482756
102,3.845,-0.68169
102,3.846,-0.836237
102,3.847,-0.837249
102,3.848,-0.69555
102,3.849,-0.481513
102,3.85,-0.236562
102,3.851,0.003605
102,3.852,0.177297
102,3.853,0.244119
102,3.854,0.230682
102,3.855,0.19318
102,3.856,0.160164
102,3.857,0.133292
102,3.858,0.111086
102,3.859,0.089555
102,3.86,0.044401
102,3.861,-0.053053
102,3.862,-0.180096
102,3.863,-0.294076
102,3.864,-0.418228
102,3.865,-0.580465
102,3.866,-0.716644
102,3.867,-0.746129
102,3.868,-0.66417
102,3.869,-0.498517
102,3.87,-0.264883
102,3.871,-0.0047
102,3.872,0.199437
102,3.873,0.283291
102,3.874,0.248468
102,3.875,0.140336
102,3.876,0.011372
102,3.877,-0.096539
102,3.878,-0.156889
102,3.879,-0.151903
102,3.88,-0.09573
102,3.881,-0.04399
102,3.882,-0.042352
102,3.883,-0.140159
102,3.884,-0.408688
102,3.885,-0.78143
102,3.886,-0.9933
102,3.887,-0.865005
102,3.888,-0.516673
102,3.889,-0.182041
102,3.89,0.046417
102,3.891,0.204354
102,3.892,0.310666
102,3.893,0.336898
102,3.894,0.274215
102,3.895,0.160461
102,3.896,0.06105
102,3.897,0.034719
102,3.898,0.08257
102,3.899,0.137837
102,3.9,0.114355
102,3.901,-0.023189
102,3.902,-0.21493
102,3.903,-0.384875
102,3.904,-0.551195
102,3.905,-0.731241
102,3.906,-0.811236
102,3.907,-0.687562
102,3.908,-0.438047
102,3.909,-0.215787
102,3.91,-0.081675
102,3.911,-0.020988
102,3.912,-0.019004
102,3.913,-0.041851
102,3.914,-0.020382
102,3.915,0.063546
102,3.916,0.134573
102,3.917,0.12258
102,3.918,0.050087
102,3.919,-0.01195
102,3.92,-0.04385
102,3.921,-0.080435
102,3.922,-0.131031
102,3.923,-0.201645
102,3.924,-0.35499
102,3.925,-0.585738
102,3.926,-0.727738
102,3.927,-0.652803
102,3.928,-0.439502
102,3.929,-0.240884
102,3.93,-0.114796
102,3.931,-0.044443
102,3.932,-0.010015
102,3.933,0.031169
102,3.934,0.141489
102,3.935,0.299208
102,3.936,0.383391
102,3.937,0.318491
102,3.938,0.161446
102,3.939,0.019647
102,3.94,-0.070037
102,3.941,-0.140861
102,3.942,-0.209758
102,3.943,-0.295737
102,3.944,-0.469317
102,3.945,-0.71518
102,3.946,-0.850049
102,3.947,-0.743584
102,3.948,-0.488185
102,3.949,-0.254017
102,3.95,-0.109718
102,3.951,-0.045203
102,3.952,-0.051344
102,3.953,-0.093338
102,3.954,-0.088355
102,3.955,0.003731
102,3.956,0.116173
102,3.957,0.156248
102,3.958,0.115186
102,3.959,0.054449
102,3.96,0.005606
102,3.961,-0.048319
102,3.962,-0.10425
102,3.963,-0.166478
102,3.964,-0.304304
102,3.965,-0.521777
102,3.966,-0.66598
102,3.967,-0.615483
102,3.968,-0.432785
102,3.969,-0.244863
102,3.97,-0.097683
102,3.971,0.011674
102,3.972,0.062762
102,3.973,0.050514
102,3.974,0.029897
102,3.975,0.050004
102,3.976,0.086468
102,3.977,0.087839
102,3.978,0.053182
102,3.979,0.0206
102,3.98,-0.002375
102,3.981,-0.038975
102,3.982,-0.077701
102,3.983,-0.103891
102,3.984,-0.164222
102,3.985,-0.259106
102,3.986,-0.288644
102,3.987,-0.232872
102,3.988,-0.186933
102,3.989,-0.174989
102,3.99,-0.133735
102,3.991,-0.052756
102,3.992,0.012725
102,3.993,0.045031
102,3.994,0.089097
102,3.995,0.160457
102,3.996,0.202114
102,3.997,0.16637
102,3.998,0.08149
102,3.999,0.008299
102,4.0,-0.03791
102,4.001,-0.080748
102,4.002,-0.104919
102,4.003,-0.071091
102,4.004,0.015279
102,4.005,0.164506
102,4.006,0.375106
102,4.007,0.464829
102,4.008,0.268664
102,4.009,-0.039102
102,4.01,-0.174598
102,4.011,-0.10621
102,4.012,0.008306
102,4.013,0.052293
102,4.014,0.03285
102,4.015,0.007856
102,4.016,0.000572
102,4.017,-0.002066
102,4.018,-0.010837
102,4.019,-0.018701
102,4.02,-0.026212
102,4.021,-0.046332
102,4.022,-0.0618
102,4.023,-0.05961
102,4.024,-0.096351
102,4.025,-0.201813
102,4.026,-0.304017
102,4.027,-0.357108
102,4.028,-0.380667
102,4.029,-0.346936
102,4.03,-0.211718
102,4.031,-0.027227
102,4.032,0.093002
102,4.033,0.098185
102,4.034,0.042305
102,4.035,0.002917
102,4.036,-1e-05
102,4.037,0.008334
102,4.038,0.009389
102,4.039,0.008189
102,4.04,0.000748
102,4.041,-0.030865
102,4.042,-0.066081
102,4.043,-0.072052
102,4.044,-0.072101
102,4.045,-0.076225
102,4.046,-0.055336
102,4.047,-0.067327
102,4.048,-0.176992
102,4.049,-0.273365
102,4.05,-0.218493
102,4.051,-0.055329
102,4.052,0.077381
102,4.053,0.115717
102,4.054,0.092734
102,4.055,0.049997
102,4.056,0.00206
102,4.057,-0.031469
102,4.058,-0.031149
102,4.059,-0.005758
102,4.06,0.004396
102,4.061,-0.033107
102,4.062,-0.085923
102,4.063,-0.101009
102,4.064,-0.090957
102,4.065,-0.07635
102,4.066,-0.050341
102,4.067,-0.078959
102,4.068,-0.210075
102,4.069,-0.308968
102,4.07,-0.232963
102,4.071,-0.04334
102,4.072,0.094211
102,4.073,0.103404
102,4.074,0.042575
102,4.075,-0.003493
102,4.076,-0.01454
102,4.077,-0.005497
102,4.078,0.017523
102,4.079,0.043541
102,4.08,0.037691
102,4.081,-0.024577
102,4.082,-0.108094
102,4.083,-0.172145
102,4.084,-0.251464
102,4.085,-0.371945
102,4.086,-0.473903
102,4.087,-0.520436
102,4.088,-0.520263
102,4.089,-0.432162
102,4.09,-0.230933
102,4.091,-0.011229
102,4.092,0.097545
102,4.093,0.092047
102,4.094,0.107216
102,4.095,0.222619
102,4.096,0.328809
102,4.097,0.280715
102,4.098,0.103635
102,4.099,-0.04969
102,4.1,-0.092172
102,4.101,-0.061767
102,4.102,-0.028372
102,4.103,-0.059933
102,4.104,-0.197843
102,4.105,-0.308488
102,4.106,-0.184214
102,4.107,0.079002
102,4.108,0.195113
102,4.109,0.137611
102,4.11,0.067982
102,4.111,0.02328
102,4.112,-0.055375
102,4.113,-0.144174
102,4.114,-0.133408
102,4.115,0.009619
102,4.116,0.178103
102,4.117,0.261319
102,4.118,0.252493
102,4.119,0.197523
102,4.12,0.108591
102,4.121,-0.023099
102,4.122,-0.165449
102,4.123,-0.280191
102,4.124,-0.365809
102,4.125,-0.349912
102,4.126,-0.137067
102,4.127,0.124503
102,4.128,0.188379
102,4.129,0.094816
102,4.13,0.04212
102,4.131,0.064837
102,4.132,0.070445
102,4.133,0.033874
102,4.134,0.028628
102,4.135,0.088637
102,4.136,0.139345
102,4.137,0.104051
102,4.138,0.005824
102,4.139,-0.069344
102,4.14,-0.077096
102,4.141,-0.042115
102,4.142,-0.004643
102,4.143,-0.029861
102,4.144,-0.194603
102,4.145,-0.412405
102,4.146,-0.462384
102,4.147,-0.323445
102,4.148,-0.17732
102,4.149,-0.08785
102,4.15,0.004496
102,4.151,0.086367
102,4.152,0.092233
102,4.153,0.040223
102,4.154,0.027922
102,4.155,0.092543
102,4.156,0.155114
102,4.157,0.131539
102,4.158,0.038695
102,4.159,-0.036413
102,4.16,-0.042218
102,4.161,0.002892
102,4.162,0.060722
102,4.163,0.063826
102,4.164,-0.078983
102,4.165,-0.310061
102,4.166,-0.422455
102,4.167,-0.365104
102,4.168,-0.269066
102,4.169,-0.172749
102,4.17,-0.033234
102,4.171,0.094525
102,4.172,0.108949
102,4.173,0.018591
102,4.174,-0.052245
102,4.175,-0.016341
102,4.176,0.071951
102,4.177,0.101617
102,4.178,0.049139
102,4.179,-0.009708
102,4.18,-0.010222
102,4.181,0.040988
102,4.182,0.106531
102,4.183,0.114784
102,4.184,-0.030476
102,4.185,-0.280721
102,4.186,-0.43549
102,4.187,-0.428688
102,4.188,-0.356865
102,4.189,-0.236506
102,4.19,-0.03683
102,4.191,0.15768
102,4.192,0.224727
102,4.193,0.165236
102,4.194,0.097905
102,4.195,0.098604
102,4.196,0.11195
102,4.197,0.058811
102,4.198,-0.040206
102,4.199,-0.095907
102,4.2,-0.063517
102,4.201,0.024673
102,4.202,0.118988
102,4.203,0.167808
102,4.204,0.146985
102,4.205,0.191854
102,4.206,0.43847
102,4.207,0.655057
102,4.208,0.538416
102,4.209,0.244171
102,4.21,0.085079
102,4.211,0.05794
102,4.212,-0.010616
102,4.213,-0.157694
102,4.214,-0.259438
102,4.215,-0.222672
102,4.216,-0.113562
102,4.217,-0.056856
102,4.218,-0.075971
102,4.219,-0.090738
102,4.22,-0.036743
102,4.221,0.072703
102,4.222,0.189034
102,4.223,0.249893
102,4.224,0.220545
102,4.225,0.231681
102,4.226,0.42656
102,4.227,0.595683
102,4.228,0.461961
102,4.229,0.192549
102,4.23,0.088312
102,4.231,0.121466
102,4.232,0.100615
102,4.233,-0.019855
102,4.234,-0.122036
102,4.235,-0.112056
102,4.236,-0.041925
102,4.237,-0.019721
102,4.238,-0.064378
102,4.239,-0.095452
102,4.24,-0.043461
102,4.241,0.078127
102,4.242,0.20927
102,4.243,0.274384
102,4.244,0.233376
102,4.245,0.216178
102,4.246,0.368521
102,4.247,0.498158
102,4.248,0.356484
102,4.249,0.120004
102,4.25,0.062792
102,4.251,0.118982
102,4.252,0.081338
102,4.253,-0.087002
102,4.254,-0.250144
102,4.255,-0.288762
102,4.256,-0.22351
102,4.257,-0.152832
102,4.258,-0.123021
102,4.259,-0.088055
102,4.26,0.006594
102,4.261,0.145783
102,4.262,0.269162
102,4.263,0.302305
102,4.264,0.214571
102,4.265,0.150743
102,4.266,0.268568
102,4.267,0.387981
102,4.268,0.271716
102,4.269,0.090655
102,4.27,0.094098
102,4.271,0.196478
102,4.272,0.190761
102,4.273,0.044621
102,4.274,-0.117571
102,4.275,-0.192595
102,4.276,-0.187173
102,4.277,-0.161241
102,4.278,-0.143948
102,4.279,-0.105602
102,4.28,-0.012261
102,4.281,0.117856
102,4.282,0.241978
102,4.283,0.320309
102,4.284,0.350369
102,4.285,0.454291
102,4.286,0.696166
102,4.287,0.788441
102,4.288,0.49532
102,4.289,0.11642
102,4.29,0.005598
102,4.291,0.073491
102,4.292,0.073621
102,4.293,-0.04112
102,4.294,-0.150673
102,4.295,-0.168396
102,4.296,-0.12362
102,4.297,-0.088801
102,4.298,-0.091559
102,4.299,-0.091361
102,4.3,-0.038125
102,4.301,0.066047
102,4.302,0.184693
102,4.303,0.267832
102,4.304,0.280111
102,4.305,0.299292
102,4.306,0.402689
102,4.307,0.412884
102,4.308,0.179113
102,4.309,-0.056972
102,4.31,-0.054628
102,4.311,0.052568
102,4.312,0.038446
102,4.313,-0.106903
102,4.314,-0.231225
102,4.315,-0.231648
102,4.316,-0.145782
102,4.317,-0.069759
102,4.318,-0.048454
102,4.319,-0.045307
102,4.32,-0.006844
102,4.321,0.069583
102,4.322,0.150403
102,4.323,0.195335
102,4.324,0.203022
102,4.325,0.300636
102,4.326,0.555182
102,4.327,0.67542
102,4.328,0.420844
102,4.329,0.086472
102,4.33,0.015001
102,4.331,0.101162
102,4.332,0.08601
102,4.333,-0.070621
102,4.334,-0.207946
102,4.335,-0.195837
102,4.336,-0.076431
102,4.337,0.018571
102,4.338,0.025224
102,4.339,-0.007684
102,4.34,-0.005634
102,4.341,0.048189
102,4.342,0.127371
102,4.343,0.194423
102,4.344,0.243302
102,4.345,0.381446
102,4.346,0.644377
102,4.347,0.727858
102,4.348,0.416958
102,4.349,0.043175
102,4.35,-0.034602
102,4.351,0.074424
102,4.352,0.097661
102,4.353,-0.02716
102,4.354,-0.167481
102,4.355,-0.197111
102,4.356,-0.117862
102,4.357,-0.023472
102,4.358,0.009971
102,4.359,-0.005638
102,4.36,-0.011127
102,4.361,0.023149
102,4.362,0.097763
102,4.363,0.206608
102,4.364,0.366351
102,4.365,0.676597
102,4.366,1.1122
102,4.367,1.275057
102,4.368,0.907987
102,4.369,0.384503
102,4.37,0.115423
102,4.371,0.01725
102,4.372,-0.144517
102,4.373,-0.36383
102,4.374,-0.449665
102,4.375,-0.310121
102,4.376,-0.091444
102,4.377,-0.005044
102,4.378,-0.083319
102,4.379,-0.167962
102,4.38,-0.10866
102,4.381,0.093925
102,4.382,0.320276
102,4.383,0.416386
102,4.384,0.327939
102,4.385,0.26597
102,4.386,0.455394
102,4.387,0.666983
102,4.388,0.560392
102,4.389,0.290093
102,4.39,0.153907
102,4.391,0.093777
102,4.392,-0.076691
102,4.393,-0.336377
102,4.394,-0.499178
102,4.395,-0.457764
102,4.396,-0.303937
102,4.397,-0.198462
102,4.398,-0.183136
102,4.399,-0.16246
102,4.4,-0.041498
102,4.401,0.172758
102,4.402,0.39831
102,4.403,0.532946
102,4.404,0.549543
102,4.405,0.630471
102,4.406,0.91377
102,4.407,1.075853
102,4.408,0.782924
102,4.409,0.321902
102,4.41,0.109002
102,4.411,0.095051
102,4.412,0.044141
102,4.413,-0.076462
102,4.414,-0.139398
102,4.415,-0.091197
102,4.416,-0.024879
102,4.417,-0.042281
102,4.418,-0.129712
102,4.419,-0.177624
102,4.42,-0.099756
102,4.421,0.087644
102,4.422,0.29725
102,4.423,0.417173
102,4.424,0.396647
102,4.425,0.387637
102,4.426,0.5433
102,4.427,0.637277
102,4.428,0.413149
102,4.429,0.104849
102,4.43,0.0208
102,4.431,0.065539
102,4.432,0.01756
102,4.433,-0.122046
102,4.434,-0.19322
102,4.435,-0.125643
102,4.436,-0.020543
102,4.437,-0.004211
102,4.438,-0.080217
102,4.439,-0.137471
102,4.44,-0.081299
102,4.441,0.075754
102,4.442,0.24438
102,4.443,0.304147
102,4.444,0.192642
102,4.445,0.062671
102,4.446,0.112357
102,4.447,0.203158
102,4.448,0.111256
102,4.449,-0.014739
102,4.45,0.032147
102,4.451,0.134914
102,4.452,0.096922
102,4.453,-0.061092
102,4.454,-0.16738
102,4.455,-0.13715
102,4.456,-0.05457
102,4.457,-0.034166
102,4.458,-0.084293
102,4.459,-0.118703
102,4.46,-0.067504
102,4.461,0.058833
102,4.462,0.204878
102,4.463,0.299483
102,4.464,0.309947
102,4.465,0.361809
102,4.466,0.558922
102,4.467,0.648999
102,4.468,0.393578
102,4.469,0.064775
102,4.47,-0.010298
102,4.471,0.058941
102,4.472,0.016581
102,4.473,-0.163745
102,4.474,-0.30441
102,4.475,-0.275069
102,4.476,-0.137081
102,4.477,-0.037455
102,4.478,-0.032502
102,4.479,-0.055325
102,4.48,-0.026746
102,4.481,0.059225
102,4.482,0.150805
102,4.483,0.163457
102,4.484,0.053605
102,4.485,-0.03231
102,4.486,0.07822
102,4.487,0.215597
102,4.488,0.138964
102,4.489,0.00489
102,4.49,0.04194
102,4.491,0.15141
102,4.492,0.141608
102,4.493,0.020897
102,4.494,-0.063472
102,4.495,-0.041422
102,4.496,0.01885
102,4.497,0.03177
102,4.498,-0.008746
102,4.499,-0.044544
102,4.5,-0.027233
102,4.501,0.039292
102,4.502,0.116677
102,4.503,0.139761
102,4.504,0.073454
102,4.505,0.049057
102,4.506,0.199953
102,4.507,0.325681
102,4.508,0.196709
102,4.509,0.006217
102,4.51,0.007205
102,4.511,0.099632
102,4.512,0.070186
102,4.513,-0.098082
102,4.514,-0.25907
102,4.515,-0.298435
102,4.516,-0.226696
102,4.517,-0.123982
102,4.518,-0.050197
102,4.519,-0.004259
102,4.52,0.042792
102,4.521,0.09953
102,4.522,0.147022
102,4.523,0.131528
102,4.524,0.027654
102,4.525,-0.013575
102,4.526,0.156476
102,4.527,0.325054
102,4.528,0.23328
102,4.529,0.058403
102,4.53,0.061683
102,4.531,0.159537
102,4.532,0.144934
102,4.533,-0.008451
102,4.534,-0.170283
102,4.535,-0.227696
102,4.536,-0.174553
102,4.537,-0.078417
102,4.538,-0.004121
102,4.539,0.037246
102,4.54,0.069424
102,4.541,0.110653
102,4.542,0.171004
102,4.543,0.236074
102,4.544,0.294095
102,4.545,0.446309
102,4.546,0.731898
102,4.547,0.835044
102,4.548,0.512981
102,4.549,0.097447
102,4.55,-0.010827
102,4.551,0.11141
102,4.552,0.176141
102,4.553,0.072056
102,4.554,-0.10706
102,4.555,-0.219764
102,4.556,-0.205948
102,4.557,-0.111678
102,4.558,-0.022142
102,4.559,0.025273
102,4.56,0.049249
102,4.561,0.077713
102,4.562,0.121439
102,4.563,0.137615
102,4.564,0.073149
102,4.565,0.050902
102,4.566,0.24564
102,4.567,0.475522
102,4.568,0.432413
102,4.569,0.217303
102,4.57,0.091993
102,4.571,0.043579
102,4.572,-0.052521
102,4.573,-0.160468
102,4.574,-0.150449
102,4.575,-0.019301
102,4.576,0.080824
102,4.577,0.035329
102,4.578,-0.102804
102,4.579,-0.187731
102,4.58,-0.132858
102,4.581,0.036001
102,4.582,0.22939
102,4.583,0.322703
102,4.584,0.246802
102,4.585,0.167559
102,4.586,0.297793
102,4.587,0.46447
102,4.588,0.370585
102,4.589,0.137926
102,4.59,0.033526
102,4.591,0.024081
102,4.592,-0.048125
102,4.593,-0.164334
102,4.594,-0.171838
102,4.595,-0.034699
102,4.596,0.090051
102,4.597,0.0619
102,4.598,-0.073051
102,4.599,-0.162543
102,4.6,-0.122859
102,4.601,0.010956
102,4.602,0.147562
102,4.603,0.172198
102,4.604,0.040765
102,4.605,-0.046728
102,4.606,0.133486
102,4.607,0.376716
102,4.608,0.343857
102,4.609,0.141256
102,4.61,0.043312
102,4.611,0.029677
102,4.612,-0.046081
102,4.613,-0.163775
102,4.614,-0.183468
102,4.615,-0.074705
102,4.616,0.029496
102,4.617,0.016916
102,4.618,-0.071527
102,4.619,-0.117581
102,4.62,-0.072423
102,4.621,0.014459
102,4.622,0.066449
102,4.623,-0.006319
102,4.624,-0.266379
102,4.625,-0.591115
102,4.626,-0.741418
102,4.627,-0.680323
102,4.628,-0.547474
102,4.629,-0.371973
102,4.63,-0.12437
102,4.631,0.099728
102,4.632,0.175735
102,4.633,0.120602
102,4.634,0.065577
102,4.635,0.09247
102,4.636,0.155007
102,4.637,0.163892
102,4.638,0.099041
102,4.639,0.015585
102,4.64,-0.036469
102,4.641,-0.051125
102,4.642,-0.040717
102,4.643,-0.050782
102,4.644,-0.126137
102,4.645,-0.163848
102,4.646,-0.035446
102,4.647,0.096236
102,4.648,0.014834
102,4.649,-0.128059
102,4.65,-0.091563
102,4.651,0.065953
102,4.652,0.154219
102,4.653,0.131588
102,4.654,0.101287
102,4.655,0.134597
102,4.656,0.185765
102,4.657,0.178296
102,4.658,0.107096
102,4.659,0.032105
102,4.66,-0.004735
102,4.661,-0.011446
102,4.662,-0.014095
102,4.663,-0.077131
102,4.664,-0.275973
102,4.665,-0.531918
102,4.666,-0.651832
102,4.667,-0.608777
102,4.668,-0.512608
102,4.669,-0.363529
102,4.67,-0.129965
102,4.671,0.092583
102,4.672,0.199707
102,4.673,0.218122
102,4.674,0.235415
102,4.675,0.266158
102,4.676,0.259568
102,4.677,0.191947
102,4.678,0.095037
102,4.679,0.017371
102,4.68,-0.026972
102,4.681,-0.054967
102,4.682,-0.071879
102,4.683,-0.100501
102,4.684,-0.186479
102,4.685,-0.272638
102,4.686,-0.250721
102,4.687,-0.200559
102,4.688,-0.250602
102,4.689,-0.289282
102,4.69,-0.171087
102,4.691,0.021237
102,4.692,0.134708
102,4.693,0.156505
102,4.694,0.173573
102,4.695,0.220009
102,4.696,0.245519
102,4.697,0.205748
102,4.698,0.118648
102,4.699,0.03397
102,4.7,-0.027026
102,4.701,-0.074087
102,4.702,-0.114106
102,4.703,-0.189933
102,4.704,-0.386296
102,4.705,-0.676782
102,4.706,-0.887187
102,4.707,-0.907127
102,4.708,-0.765148
102,4.709,-0.50448
102,4.71,-0.184082
102,4.711,0.069093
102,4.712,0.155205
102,4.713,0.109092
102,4.714,0.053941
102,4.715,0.064865
102,4.716,0.116122
102,4.717,0.145335
102,4.718,0.127551
102,4.719,0.080158
102,4.72,0.016898
102,4.721,-0.059278
102,4.722,-0.126504
102,4.723,-0.180488
102,4.724,-0.248138
102,4.725,-0.276615
102,4.726,-0.191062
102,4.727,-0.110115
102,4.728,-0.170757
102,4.729,-0.239708
102,4.73,-0.145308
102,4.731,0.039961
102,4.732,0.146434
102,4.733,0.136847
102,4.734,0.107728
102,4.735,0.135571
102,4.736,0.191408
102,4.737,0.206217
102,4.738,0.159387
102,4.739,0.08119
102,4.74,-0.001374
102,4.741,-0.079249
102,4.742,-0.141615
102,4.743,-0.21939
102,4.744,-0.390088
102,4.745,-0.630471
102,4.746,-0.793472
102,4.747,-0.802139
102,4.748,-0.687705
102,4.749,-0.472352
102,4.75,-0.196882
102,4.751,0.024395
102,4.752,0.104218
102,4.753,0.082098
102,4.754,0.064405
102,4.755,0.100723
102,4.756,0.158498
102,4.757,0.185703
102,4.758,0.162647
102,4.759,0.102488
102,4.76,0.01954
102,4.761,-0.07256
102,4.762,-0.134674
102,4.763,-0.139366
102,4.764,-0.091667
102,4.765,0.052583
102,4.766,0.285759
102,4.767,0.36452
102,4.768,0.129962
102,4.769,-0.151438
102,4.77,-0.174916
102,4.771,-0.002527
102,4.772,0.128007
102,4.773,0.106213
102,4.774,-0.003103
102,4.775,-0.08218
102,4.776,-0.093343
102,4.777,-0.094802
102,4.778,-0.130321
102,4.779,-0.157432
102,4.78,-0.117524
102,4.781,-0.015185
102,4.782,0.079207
102,4.783,0.043745
102,4.784,-0.180225
102,4.785,-0.400965
102,4.786,-0.351542
102,4.787,-0.112973
102,4.788,0.025409
102,4.789,0.038942
102,4.79,0.087135
102,4.791,0.18318
102,4.792,0.216748
102,4.793,0.133187
102,4.794,-0.006187
102,4.795,-0.086294
102,4.796,-0.049491
102,4.797,0.052003
102,4.798,0.122357
102,4.799,0.116283
102,4.8,0.047167
102,4.801,-0.040421
102,4.802,-0.075727
102,4.803,-0.018414
102,4.804,0.101638
102,4.805,0.273039
102,4.806,0.465713
102,4.807,0.489281
102,4.808,0.242853
102,4.809,-0.03149
102,4.81,-0.100793
102,4.811,-0.040731
102,4.812,-0.009138
102,4.813,-0.009002
102,4.814,0.047323
102,4.815,0.159949
102,4.816,0.217044
102,4.817,0.139657
102,4.818,-0.01906
102,4.819,-0.13379
102,4.82,-0.133706
102,4.821,-0.04204
102,4.822,0.064087
102,4.823,0.067231
102,4.824,-0.104384
102,4.825,-0.305623
102,4.826,-0.310831
102,4.827,-0.177049
102,4.828,-0.117018
102,4.829,-0.111229
102,4.83,-0.036246
102,4.831,0.056429
102,4.832,0.046803
102,4.833,-0.057015
102,4.834,-0.139693
102,4.835,-0.134067
102,4.836,-0.086879
102,4.837,-0.072109
102,4.838,-0.094913
102,4.839,-0.100825
102,4.84,-0.055778
102,4.841,0.0248
102,4.842,0.101834
102,4.843,0.106702
102,4.844,0.004213
102,4.845,-0.064162
102,4.846,0.058502
102,4.847,0.207933
102,4.848,0.143554
102,4.849,-0.013775
102,4.85,-0.039611
102,4.851,0.022467
102,4.852,0.022704
102,4.853,-0.041622
102,4.854,-0.059625
102,4.855,0.00743
102,4.856,0.072318
102,4.857,0.052828
102,4.858,-0.026358
102,4.859,-0.08195
102,4.86,-0.072909
102,4.861,-0.019192
102,4.862,0.032116
102,4.863,0.001578
102,4.864,-0.160371
102,4.865,-0.324171
102,4.866,-0.304218
102,4.867,-0.17801
102,4.868,-0.138408
102,4.869,-0.136376
102,4.87,-0.045607
102,4.871,0.066831
102,4.872,0.075016
102,4.873,-0.00229
102,4.874,-0.041306
102,4.875,0.009822
102,4.876,0.075123
102,4.877,0.07078
102,4.878,0.006778
102,4.879,-0.048466
102,4.88,-0.057052
102,4.881,-0.031113
102,4.882,-0.007939
102,4.883,-0.058648
102,4.884,-0.224398
102,4.885,-0.370761
102,4.886,-0.320679
102,4.887,-0.169953
102,4.888,-0.120291
102,4.889,-0.11927
102,4.89,-0.03704
102,4.891,0.060437
102,4.892,0.049693
102,4.893,-0.048084
102,4.894,-0.107487
102,4.895,-0.065433
102,4.896,0.019197
102,4.897,0.057286
102,4.898,0.028134
102,4.899,-0.023047
102,4.9,-0.055176
102,4.901,-0.060058
102,4.902,-0.044276
102,4.903,-0.035061
102,4.904,-0.029573
102,4.905,0.105671
102,4.906,0.428591
102,4.907,0.630517
102,4.908,0.437883
102,4.909,0.094523
102,4.91,-0.051961
102,4.911,-0.026446
102,4.912,-0.01839
102,4.913,-0.072119
102,4.914,-0.101176
102,4.915,-0.053233
102,4.916,0.025965
102,4.917,0.06245
102,4.918,0.035022
102,4.919,-0.01706
102,4.92,-0.0491
102,4.921,-0.046085
102,4.922,-0.022154
102,4.923,-0.037508
102,4.924,-0.141339
102,4.925,-0.232431
102,4.926,-0.175281
102,4.927,-0.072722
102,4.928,-0.089294
102,4.929,-0.134594
102,4.93,-0.067312
102,4.931,0.040011
102,4.932,0.047796
102,4.933,-0.046842
102,4.934,-0.133399
102,4.935,-0.126438
102,4.936,-0.043989
102,4.937,0.029078
102,4.938,0.036666
102,4.939,-0.002491
102,4.94,-0.040564
102,4.941,-0.045822
102,4.942,-0.002684
102,4.943,0.07205
102,4.944,0.159834
102,4.945,0.335886
102,4.946,0.615288
102,4.947,0.715015
102,4.948,0.425088
102,4.949,0.030377
102,4.95,-0.118088
102,4.951,-0.062719
102,4.952,-0.013374
102,4.953,-0.036818
102,4.954,-0.063923
102,4.955,-0.031618
102,4.956,0.039126
102,4.957,0.077673
102,4.958,0.049554
102,4.959,-0.010042
102,4.96,-0.048159
102,4.961,-0.041349
102,4.962,0.000537
102,4.963,0.017028
102,4.964,-0.05584
102,4.965,-0.147449
102,4.966,-0.136858
102,4.967,-0.102016
102,4.968,-0.167416
102,4.969,-0.216724
102,4.97,-0.104851
102,4.971,0.080348
102,4.972,0.17483
102,4.973,0.148608
102,4.974,0.088675
102,4.975,0.068843
102,4.976,0.081323
102,4.977,0.076029
102,4.978,0.031414
102,4.979,-0.024471
102,4.98,-0.054979
102,4.981,-0.045445
102,4.982,-0.001065
102,4.983,0.027632
102,4.984,-0.023503
102,4.985,-0.102458
102,4.986,-0.109986
102,4.987,-0.119467
102,4.988,-0.222029
102,4.989,-0.273917
102,4.99,-0.134746
102,4.991,0.083272
102,4.992,0.195046
102,4.993,0.16365
102,4.994,0.082919
102,4.995,0.037936
102,4.996,0.033742
102,4.997,0.032843
102,4.998,0.012172
102,4.999,-0.018352
102,5.0,-0.040065
102,5.001,-0.041346
102,5.002,-0.0139
102,5.003,0.011382
102,5.004,-0.02078
102,5.005,-0.073763
102,5.006,-0.078553
102,5.007,-0.119121
102,5.008,-0.261344
102,5.009,-0.331572
102,5.01,-0.187902
102,5.011,0.04067
102,5.012,0.159845
102,5.013,0.134636
102,5.014,0.060861
102,5.015,0.024744
102,5.016,0.035161
102,5.017,0.053455
102,5.018,0.046497
102,5.019,0.013272
102,5.02,-0.031435
102,5.021,-0.070352
102,5.022,-0.083265
102,5.023,-0.087164
102,5.024,-0.127942
102,5.025,-0.171568
102,5.026,-0.158813
102,5.027,-0.179405
102,5.028,-0.298033
102,5.029,-0.33811
102,5.03,-0.160954
102,5.031,0.088957
102,5.032,0.190757
102,5.033,0.089062
102,5.034,-0.100204
102,5.035,-0.217413
102,5.036,-0.186163
102,5.037,-0.057712
102,5.038,0.05856
102,5.039,0.09486
102,5.04,0.046416
102,5.041,-0.047357
102,5.042,-0.120039
102,5.043,-0.129887
102,5.044,-0.063348
102,5.045,0.143485
102,5.046,0.470229
102,5.047,0.611356
102,5.048,0.365131
102,5.049,0.026973
102,5.05,-0.082659
102,5.051,-0.051255
102,5.052,-0.079908
102,5.053,-0.171336
102,5.054,-0.209913
102,5.055,-0.159967
102,5.056,-0.099888
102,5.057,-0.100166
102,5.058,-0.135496
102,5.059,-0.125983
102,5.06,-0.033234
102,5.061,0.113107
102,5.062,0.236208
102,5.063,0.215194
102,5.064,-0.003593
102,5.065,-0.235339
102,5.066,-0.23607
102,5.067,-0.081273
102,5.068,-0.0094
102,5.069,-0.011507
102,5.07,0.039135
102,5.071,0.108885
102,5.072,0.113898
102,5.073,0.089195
102,5.074,0.115967
102,5.075,0.177866
102,5.076,0.18238
102,5.077,0.088299
102,5.078,-0.046013
102,5.079,-0.127578
102,5.08,-0.115764
102,5.081,-0.032166
102,5.082,0.06359
102,5.083,0.064936
102,5.084,-0.093782
102,5.085,-0.272276
102,5.086,-0.26509
102,5.087,-0.142807
102,5.088,-0.109997
102,5.089,-0.134544
102,5.09,-0.094898
102,5.091,-0.04115
102,5.092,-0.058323
102,5.093,-0.095981
102,5.094,-0.058927
102,5.095,0.04033
102,5.096,0.10274
102,5.097,0.071806
102,5.098,-0.012867
102,5.099,-0.07459
102,5.1,-0.077248
102,5.101,-0.031866
102,5.102,0.013704
102,5.103,-0.048306
102,5.104,-0.294513
102,5.105,-0.58555
102,5.106,-0.673806
102,5.107,-0.545399
102,5.108,-0.373694
102,5.109,-0.209644
102,5.11,-0.028459
102,5.111,0.093309
102,5.112,0.07506
102,5.113,-0.019431
102,5.114,-0.050095
102,5.115,0.020162
102,5.116,0.097167
102,5.117,0.096036
102,5.118,0.03215
102,5.119,-0.030717
102,5.12,-0.060068
102,5.121,-0.058453
102,5.122,-0.051045
102,5.123,-0.104507
102,5.124,-0.237329
102,5.125,-0.274075
102,5.126,-0.059798
102,5.127,0.185291
102,5.128,0.169958
102,5.129,0.011685
102,5.13,-0.039727
102,5.131,0.001055
102,5.132,0.013797
102,5.133,0.014163
102,5.134,0.087266
102,5.135,0.216184
102,5.136,0.289193
102,5.137,0.239689
102,5.138,0.107304
102,5.139,-0.02374
102,5.14,-0.102275
102,5.141,-0.119195
102,5.142,-0.099669
102,5.143,-0.125838
102,5.144,-0.253268
102,5.145,-0.354195
102,5.146,-0.27006
102,5.147,-0.120185
102,5.148,-0.104492
102,5.149,-0.144152
102,5.15,-0.081756
102,5.151,0.027318
102,5.152,0.052169
102,5.153,-0.003991
102,5.154,-0.040499
102,5.155,-0.008211
102,5.156,0.049385
102,5.157,0.070605
102,5.158,0.041024
102,5.159,-0.011139
102,5.16,-0.053751
102,5.161,-0.063065
102,5.162,-0.035432
102,5.163,-0.023997
102,5.164,-0.068537
102,5.165,-0.052779
102,5.166,0.128945
102,5.167,0.274435
102,5.168,0.16034
102,5.169,-0.042716
102,5.17,-0.078987
102,5.171,-0.000426
102,5.172,0.011733
102,5.173,-0.074922
102,5.174,-0.149758
102,5.175,-0.118815
102,5.176,-0.008236
102,5.177,0.079534
102,5.178,0.085202
102,5.179,0.035409
102,5.18,-0.014802
102,5.181,-0.026222
102,5.182,0.008088
102,5.183,0.032573
102,5.184,-0.000829
102,5.185,0.010087
102,5.186,0.163617
102,5.187,0.268758
102,5.188,0.125316
102,5.189,-0.077638
102,5.19,-0.082912
102,5.191,0.042002
102,5.192,0.091857
102,5.193,0.010663
102,5.194,-0.099729
102,5.195,-0.127167
102,5.196,-0.062316
102,5.197,0.016431
102,5.198,0.044051
102,5.199,0.025011
102,5.2,-0.000515
102,5.201,0.005973
102,5.202,0.055351
102,5.203,0.083004
102,5.204,0.006875
102,5.205,-0.108538
102,5.206,-0.134322
102,5.207,-0.134684
102,5.208,-0.218093
102,5.209,-0.252755
102,5.21,-0.089186
102,5.211,0.168002
102,5.212,0.324665
102,5.213,0.327427
102,5.214,0.254817
102,5.215,0.18894
102,5.216,0.149517
102,5.217,0.111642
102,5.218,0.051741
102,5.219,-0.022047
102,5.22,-0.083103
102,5.221,-0.100418
102,5.222,-0.052964
102,5.223,0.018957
102,5.224,0.050442
102,5.225,0.087678
102,5.226,0.184962
102,5.227,0.178442
102,5.228,-0.051782
102,5.229,-0.262359
102,5.23,-0.206797
102,5.231,0.010488
102,5.232,0.165435
102,5.233,0.194173
102,5.234,0.166394
102,5.235,0.14415
102,5.236,0.132992
102,5.237,0.111939
102,5.238,0.065275
102,5.239,-0.002113
102,5.24,-0.071769
102,5.241,-0.112986
102,5.242,-0.097579
102,5.243,-0.06047
102,5.244,-0.069903
102,5.245,-0.081279
102,5.246,0.001318
102,5.247,0.089854
102,5.248,0.046115
102,5.249,-0.038061
102,5.25,-0.026947
102,5.251,0.01337
102,5.252,-0.027258
102,5.253,-0.097817
102,5.254,-0.065242
102,5.255,0.072008
102,5.256,0.163196
102,5.257,0.102847
102,5.258,-0.045011
102,5.259,-0.142439
102,5.26,-0.124336
102,5.261,-0.021355
102,5.262,0.066142
102,5.263,-0.014067
102,5.264,-0.308486
102,5.265,-0.575672
102,5.266,-0.525777
102,5.267,-0.256896
102,5.268,-0.075213
102,5.269,-0.01899
102,5.27,0.029714
102,5.271,0.044667
102,5.272,-0.037527
102,5.273,-0.134905
102,5.274,-0.110209
102,5.275,0.028448
102,5.276,0.1296
102,5.277,0.094843
102,5.278,-0.018004
102,5.279,-0.094222
102,5.28,-0.08444
102,5.281,-0.007856
102,5.282,0.069905
102,5.283,0.035564
102,5.284,-0.143904
102,5.285,-0.268883
102,5.286,-0.160111
102,5.287,-0.025153
102,5.288,-0.115174
102,5.289,-0.244978
102,5.29,-0.144703
102,5.291,0.102724
102,5.292,0.261687
102,5.293,0.249837
102,5.294,0.144891
102,5.295,0.055888
102,5.296,0.044368
102,5.297,0.097827
102,5.298,0.14481
102,5.299,0.117988
102,5.3,0.008278
102,5.301,-0.12438
102,5.302,-0.199489
102,5.303,-0.209225
102,5.304,-0.199974
102,5.305,-0.116391
102,5.306,0.115093
102,5.307,0.309377
102,5.308,0.24373
102,5.309,0.055805
102,5.31,-0.018712
102,5.311,-0.015164
102,5.312,-0.073352
102,5.313,-0.181982
102,5.314,-0.221551
102,5.315,-0.142855
102,5.316,-0.022943
102,5.317,0.035601
102,5.318,0.012997
102,5.319,-0.034667
102,5.32,-0.052086
102,5.321,-0.016464
102,5.322,0.048758
102,5.323,0.054282
102,5.324,-0.041033
102,5.325,-0.074749
102,5.326,0.103426
102,5.327,0.288404
102,5.328,0.217195
102,5.329,0.027503
102,5.33,-0.024141
102,5.331,0.037935
102,5.332,0.066112
102,5.333,0.047561
102,5.334,0.069454
102,5.335,0.154036
102,5.336,0.218909
102,5.337,0.184717
102,5.338,0.067615
102,5.339,-0.051607
102,5.34,-0.110535
102,5.341,-0.08727
102,5.342,-0.004599
102,5.343,0.047945
102,5.344,0.012154
102,5.345,0.011906
102,5.346,0.169447
102,5.347,0.293233
102,5.348,0.159399
102,5.349,-0.064581
102,5.35,-0.118025
102,5.351,-0.038882
102,5.352,0.012125
102,5.353,0.010039
102,5.354,0.026297
102,5.355,0.081962
102,5.356,0.120609
102,5.357,0.091505
102,5.358,0.010097
102,5.359,-0.067345
102,5.36,-0.097506
102,5.361,-0.061675
102,5.362,0.017166
102,5.363,0.037611
102,5.364,-0.080838
102,5.365,-0.222408
102,5.366,-0.212932
102,5.367,-0.13351
102,5.368,-0.158943
102,5.369,-0.212425
102,5.37,-0.151045
102,5.371,-0.03764
102,5.372,0.012317
102,5.373,0.016021
102,5.374,0.045171
102,5.375,0.090382
102,5.376,0.087582
102,5.377,0.026918
102,5.378,-0.037127
102,5.379,-0.056155
102,5.38,-0.022426
102,5.381,0.047254
102,5.382,0.0901
102,5.383,-0.04724
102,5.384,-0.480448
102,5.385,-1.057364
102,5.386,-1.422883
102,5.387,-1.36491
102,5.388,-0.973553
102,5.389,-0.488811
102,5.39,-0.133872
102,5.391,-0.037396
102,5.392,-0.166727
102,5.393,-0.358583
102,5.394,-0.469475
102,5.395,-0.465175
102,5.396,-0.377368
102,5.397,-0.236184
102,5.398,-0.060764
102,5.399,0.119104
102,5.4,0.265274
102,5.401,0.355416
102,5.402,0.356055
102,5.403,0.171151
102,5.404,-0.24085
102,5.405,-0.671307
102,5.406,-0.813716
102,5.407,-0.641651
102,5.408,-0.363949
102,5.409,-0.10385
102,5.41,0.086132
102,5.411,0.109513
102,5.412,-0.054335
102,5.413,-0.288112
102,5.414,-0.458241
102,5.415,-0.505112
102,5.416,-0.429361
102,5.417,-0.258819
102,5.418,-0.037413
102,5.419,0.177118
102,5.42,0.330693
102,5.421,0.405791
102,5.422,0.404931
102,5.423,0.302223
102,5.424,0.124394
102,5.425,0.071807
102,5.426,0.278535
102,5.427,0.481472
102,5.428,0.398024
102,5.429,0.217021
102,5.43,0.218171
102,5.431,0.326787
102,5.432,0.336909
102,5.433,0.213095
102,5.434,0.073147
102,5.435,0.025562
102,5.436,0.065958
102,5.437,0.108573
102,5.438,0.096387
102,5.439,0.044854
102,5.44,-0.004708
102,5.441,0.00107
102,5.442,0.138508
102,5.443,0.459276
102,5.444,0.952356
102,5.445,1.523211
102,5.446,1.862836
102,5.447,1.552257
102,5.448,0.6724
102,5.449,-0.08811
102,5.45,-0.263084
102,5.451,-0.039627
102,5.452,0.197276
102,5.453,0.312235
102,5.454,0.404395
102,5.455,0.548812
102,5.456,0.651589
102,5.457,0.562166
102,5.458,0.26828
102,5.459,-0.081633
102,5.46,-0.328954
102,5.461,-0.407556
102,5.462,-0.346842
102,5.463,-0.259125
102,5.464,-0.254866
102,5.465,-0.305569
102,5.466,-0.32484
102,5.467,-0.36635
102,5.468,-0.471782
102,5.469,-0.479579
102,5.47,-0.287579
102,5.471,-0.052704
102,5.472,0.036816
102,5.473,-0.020696
102,5.474,-0.101501
102,5.475,-0.121164
102,5.476,-0.093687
102,5.477,-0.077945
102,5.478,-0.100958
102,5.479,-0.133094
102,5.48,-0.128582
102,5.481,-0.05867
102,5.482,0.070622
102,5.483,0.195142
102,5.484,0.259036
102,5.485,0.332256
102,5.486,0.462735
102,5.487,0.444004
102,5.488,0.144879
102,5.489,-0.140596
102,5.49,-0.133157
102,5.491,0.033793
102,5.492,0.096865
102,5.493,-0.003924
102,5.494,-0.139872
102,5.495,-0.181304
102,5.496,-0.122291
102,5.497,-0.05239
102,5.498,-0.040959
102,5.499,-0.075176
102,5.5,-0.100681
102,5.501,-0.072829
102,5.502,0.010243
102,5.503,0.084299
102,5.504,0.100578
102,5.505,0.15331
102,5.506,0.312884
102,5.507,0.36352
102,5.508,0.136258
102,5.509,-0.110854
102,5.51,-0.113307
102,5.511,0.006257
102,5.512,0.017487
102,5.513,-0.106514
102,5.514,-0.232566
102,5.515,-0.2503
102,5.516,-0.163599
102,5.517,-0.052912
102,5.518,0.011316
102,5.519,0.017643
102,5.52,-0.000382
102,5.521,0.002433
102,5.522,0.038657
102,5.523,0.053515
102,5.524,0.015341
102,5.525,0.049073
102,5.526,0.241474
102,5.527,0.355813
102,5.528,0.186805
102,5.529,-0.029225
102,5.53,-0.030394
102,5.531,0.068277
102,5.532,0.047549
102,5.533,-0.109889
102,5.534,-0.263312
102,5.535,-0.29942
102,5.536,-0.238103
102,5.537,-0.176585
102,5.538,-0.154926
102,5.539,-0.122903
102,5.54,-0.024861
102,5.541,0.132808
102,5.542,0.250918
102,5.543,0.171915
102,5.544,-0.099864
102,5.545,-0.23467
102,5.546,0.034814
102,5.547,0.422172
102,5.548,0.496737
102,5.549,0.330431
102,5.55,0.203016
102,5.551,0.122169
102,5.552,-0.011646
102,5.553,-0.144951
102,5.554,-0.152362
102,5.555,-0.032643
102,5.556,0.078238
102,5.557,0.07201
102,5.558,-0.019065
102,5.559,-0.082912
102,5.56,-0.044155
102,5.561,0.094753
102,5.562,0.243028
102,5.563,0.246718
102,5.564,0.080516
102,5.565,0.004653
102,5.566,0.231211
102,5.567,0.495609
102,5.568,0.44805
102,5.569,0.227947
102,5.57,0.126277
102,5.571,0.111955
102,5.572,0.028857
102,5.573,-0.108548
102,5.574,-0.166451
102,5.575,-0.090181
102,5.576,0.025205
102,5.577,0.053657
102,5.578,-0.017002
102,5.579,-0.091356
102,5.58,-0.076184
102,5.581,0.056972
102,5.582,0.245481
102,5.583,0.341176
102,5.584,0.275717
102,5.585,0.231417
102,5.586,0.381579
102,5.587,0.507987
102,5.588,0.346183
102,5.589,0.088247
102,5.59,0.023432
102,5.591,0.08769
102,5.592,0.089352
102,5.593,0.019736
102,5.594,-0.000934
102,5.595,0.068606
102,5.596,0.133821
102,5.597,0.09554
102,5.598,-0.030011
102,5.599,-0.139032
102,5.6,-0.142334
102,5.601,-0.016486
102,5.602,0.172829
102,5.603,0.274522
102,5.604,0.216374
102,5.605,0.175878
102,5.606,0.320162
102,5.607,0.43075
102,5.608,0.256897
102,5.609,0.002886
102,5.61,-0.05054
102,5.611,0.019238
102,5.612,0.022643
102,5.613,-0.047308
102,5.614,-0.084002
102,5.615,-0.047669
102,5.616,-0.000139
102,5.617,-0.010425
102,5.618,-0.07379
102,5.619,-0.121072
102,5.62,-0.087073
102,5.621,0.042187
102,5.622,0.192563
102,5.623,0.201324
102,5.624,-0.003334
102,5.625,-0.213254
102,5.626,-0.18725
102,5.627,-0.049403
102,5.628,-0.038233
102,5.629,-0.065598
102,5.63,0.029723
102,5.631,0.150601
102,5.632,0.146047
102,5.633,0.047401
102,5.634,-0.018405
102,5.635,-0.014518
102,5.636,-0.005964
102,5.637,-0.039393
102,5.638,-0.089082
102,5.639,-0.101114
102,5.64,-0.043875
102,5.641,0.07846
102,5.642,0.197792
102,5.643,0.178829
102,5.644,-0.009996
102,5.645,-0.130983
102,5.646,0.02963
102,5.647,0.247913
102,5.648,0.218244
102,5.649,0.082769
102,5.65,0.085331
102,5.651,0.138784
102,5.652,0.056472
102,5.653,-0.15171
102,5.654,-0.325883
102,5.655,-0.349586
102,5.656,-0.249351
102,5.657,-0.130905
102,5.658,-0.056193
102,5.659,-0.007526
102,5.66,0.058348
102,5.661,0.162912
102,5.662,0.261881
102,5.663,0.238321
102,5.664,0.064382
102,5.665,-0.040374
102,5.666,0.1153
102,5.667,0.307959
102,5.668,0.252579
102,5.669,0.103833
102,5.67,0.102162
102,5.671,0.156255
102,5.672,0.082466
102,5.673,-0.10425
102,5.674,-0.248631
102,5.675,-0.251845
102,5.676,-0.154271
102,5.677,-0.058224
102,5.678,-0.015524
102,5.679,-0.00366
102,5.68,0.024267
102,5.681,0.09981
102,5.682,0.201932
102,5.683,0.249366
102,5.684,0.233652
102,5.685,0.316679
102,5.686,0.549658
102,5.687,0.635252
102,5.688,0.385258
102,5.689,0.088537
102,5.69,0.024292
102,5.691,0.081857
102,5.692,0.059848
102,5.693,-0.047222
102,5.694,-0.124838
102,5.695,-0.108337
102,5.696,-0.032004
102,5.697,0.025493
102,5.698,0.022228
102,5.699,-0.014244
102,5.7,-0.024914
102,5.701,0.034304
102,5.702,0.151486
102,5.703,0.249061
102,5.704,0.304094
102,5.705,0.440127
102,5.706,0.671523
102,5.707,0.702924
102,5.708,0.385234
102,5.709,0.045202
102,5.71,-0.024573
102,5.711,0.054031
102,5.712,0.051534
102,5.713,-0.058268
102,5.714,-0.146914
102,5.715,-0.117966
102,5.716,-0.005791
102,5.717,0.074815
102,5.718,0.05749
102,5.719,-0.018233
102,5.72,-0.065129
102,5.721,-0.01749
102,5.722,0.123921
102,5.723,0.279623
102,5.724,0.399651
102,5.725,0.562786
102,5.726,0.76414
102,5.727,0.735025
102,5.728,0.363891
102,5.729,-0.002593
102,5.73,-0.067412
102,5.731,0.039923
102,5.732,0.073139
102,5.733,-0.013258
102,5.734,-0.101818
102,5.735,-0.091821
102,5.736,-0.004126
102,5.737,0.059578
102,5.738,0.038022
102,5.739,-0.032871
102,5.74,-0.069896
102,5.741,-0.010394
102,5.742,0.130214
102,5.743,0.235416
102,5.744,0.21045
102,5.745,0.144596
102,5.746,0.16169
102,5.747,0.147739
102,5.748,-0.020887
102,5.749,-0.161883
102,5.75,-0.097251
102,5.751,0.045141
102,5.752,0.067757
102,5.753,-0.046618
102,5.754,-0.175952
102,5.755,-0.207982
102,5.756,-0.135215
102,5.757,-0.039498
102,5.758,0.004369
102,5.759,-0.00396
102,5.76,-0.008952
102,5.761,0.047381
102,5.762,0.160949
102,5.763,0.235477
102,5.764,0.210828
102,5.765,0.217282
102,5.766,0.363726
102,5.767,0.431466
102,5.768,0.225124
102,5.769,-0.004855
102,5.77,0.01881
102,5.771,0.171243
102,5.772,0.18939
102,5.773,0.013878
102,5.774,-0.206814
102,5.775,-0.30569
102,5.776,-0.247144
102,5.777,-0.115989
102,5.778,-0.009891
102,5.779,0.039254
102,5.78,0.064341
102,5.781,0.116694
102,5.782,0.19136
102,5.783,0.186546
102,5.784,0.055608
102,5.785,0.005653
102,5.786,0.242604
102,5.787,0.528071
102,5.788,0.507708
102,5.789,0.291285
102,5.79,0.155298
102,5.791,0.086787
102,5.792,-0.033354
102,5.793,-0.169013
102,5.794,-0.206235
102,5.795,-0.13908
102,5.796,-0.077544
102,5.797,-0.096382
102,5.798,-0.150952
102,5.799,-0.146465
102,5.8,-0.036009
102,5.801,0.15853
102,5.802,0.340135
102,5.803,0.367098
102,5.804,0.252252
102,5.805,0.266203
102,5.806,0.545276
102,5.807,0.754167
102,5.808,0.589362
102,5.809,0.276414
102,5.81,0.126093
102,5.811,0.089158
102,5.812,-0.000181
102,5.813,-0.13443
102,5.814,-0.197061
102,5.815,-0.151431
102,5.816,-0.082015
102,5.817,-0.073917
102,5.818,-0.110805
102,5.819,-0.113603
102,5.82,-0.033709
102,5.821,0.121819
102,5.822,0.277662
102,5.823,0.305128
102,5.824,0.196677
102,5.825,0.169764
102,5.826,0.347551
102,5.827,0.479659
102,5.828,0.344829
102,5.829,0.131207
102,5.83,0.063559
102,5.831,0.062848
102,5.832,-0.024678
102,5.833,-0.17831
102,5.834,-0.266829
102,5.835,-0.227059
102,5.836,-0.126327
102,5.837,-0.069262
102,5.838,-0.076489
102,5.839,-0.087354
102,5.84,-0.045141
102,5.841,0.068093
102,5.842,0.208199
102,5.843,0.266463
102,5.844,0.221462
102,5.845,0.248322
102,5.846,0.4389
102,5.847,0.545903
102,5.848,0.36894
102,5.849,0.111863
102,5.85,0.009226
102,5.851,-0.006503
102,5.852,-0.079607
102,5.853,-0.193817
102,5.854,-0.241724
102,5.855,-0.186352
102,5.856,-0.0951
102,5.857,-0.049408
102,5.858,-0.058572
102,5.859,-0.074022
102,5.86,-0.052125
102,5.861,0.024784
102,5.862,0.121814
102,5.863,0.144895
102,5.864,0.09208
102,5.865,0.154564
102,5.866,0.413996
102,5.867,0.584141
102,5.868,0.431108
102,5.869,0.158279
102,5.87,0.027544
102,5.871,0.00188
102,5.872,-0.053107
102,5.873,-0.141772
102,5.874,-0.193047
102,5.875,-0.180941
102,5.876,-0.13622
102,5.877,-0.096656
102,5.878,-0.073566
102,5.879,-0.056285
102,5.88,-0.027685
102,5.881,0.036031
102,5.882,0.1286
102,5.883,0.183666
102,5.884,0.198766
102,5.885,0.326528
102,5.886,0.601817
102,5.887,0.726592
102,5.888,0.494177
102,5.889,0.146263
102,5.89,-0.027404
102,5.891,-0.054738
102,5.892,-0.076445
102,5.893,-0.105694
102,5.894,-0.079412
102,5.895,0.001572
102,5.896,0.061817
102,5.897,0.048544
102,5.898,-0.016361
102,5.899,-0.084707
102,5.9,-0.132488
102,5.901,-0.151698
102,5.902,-0.173685
102,5.903,-0.309834
102,5.904,-0.638077
102,5.905,-1.037586
102,5.906,-1.269179
102,5.907,-1.20756
102,5.908,-0.901824
102,5.909,-0.474105
102,5.91,-0.058398
102,5.911,0.214391
102,5.912,0.279819
102,5.913,0.202411
102,5.914,0.119692
102,5.915,0.113138
102,5.916,0.156545
102,5.917,0.178482
102,5.918,0.144255
102,5.919,0.064075
102,5.92,-0.036108
102,5.921,-0.115897
102,5.922,-0.156967
102,5.923,-0.21806
102,5.924,-0.344754
102,5.925,-0.438094
102,5.926,-0.389374
102,5.927,-0.287648
102,5.928,-0.253519
102,5.929,-0.210956
102,5.93,-0.061672
102,5.931,0.117818
102,5.932,0.201964
102,5.933,0.18286
102,5.934,0.144955
102,5.935,0.148416
102,5.936,0.179568
102,5.937,0.189628
102,5.938,0.149312
102,5.939,0.058826
102,5.94,-0.061026
102,5.941,-0.158228
102,5.942,-0.186288
102,5.943,-0.173029
102,5.944,-0.158494
102,5.945,-0.081662
102,5.946,0.086938
102,5.947,0.167863
102,5.948,0.03057
102,5.949,-0.13434
102,5.95,-0.108026
102,5.951,0.049205
102,5.952,0.151564
102,5.953,0.124186
102,5.954,0.035268
102,5.955,-0.004719
102,5.956,0.041701
102,5.957,0.113869
102,5.958,0.134008
102,5.959,0.074455
102,5.96,-0.039208
102,5.961,-0.136747
102,5.962,-0.160986
102,5.963,-0.15538
102,5.964,-0.211256
102,5.965,-0.32396
102,5.966,-0.414314
102,5.967,-0.46022
102,5.968,-0.466004
102,5.969,-0.372761
102,5.97,-0.153642
102,5.971,0.088337
102,5.972,0.220569
102,5.973,0.211281
102,5.974,0.131816
102,5.975,0.067418
102,5.976,0.031022
102,5.977,-0.020364
102,5.978,-0.090229
102,5.979,-0.130538
102,5.98,-0.109366
102,5.981,-0.028681
102,5.982,0.054268
102,5.983,0.007176
102,5.984,-0.224693
102,5.985,-0.464969
102,5.986,-0.495498
102,5.987,-0.352278
102,5.988,-0.224318
102,5.989,-0.150824
102,5.99,-0.045259
102,5.991,0.091938
102,5.992,0.163924
102,5.993,0.11501
102,5.994,-0.000823
102,5.995,-0.074476
102,5.996,-0.047112
102,5.997,0.044356
102,5.998,0.116329
102,5.999,0.106168
102,6.0,0.010772
102,6.001,-0.094827
102,6.002,-0.120056
102,6.003,-0.081355
102,6.004,-0.082267
102,6.005,-0.156097
102,6.006,-0.238896
102,6.007,-0.288004
102,6.008,-0.296803
102,6.009,-0.236406
102,6.01,-0.105945
102,6.011,0.033529
102,6.012,0.149218
102,6.013,0.280245
102,6.014,0.432623
102,6.015,0.501999
102,6.016,0.390865
102,6.017,0.151801
102,6.018,-0.063372
102,6.019,-0.160771
102,6.02,-0.154048
102,6.021,-0.090778
102,6.022,-0.039904
102,6.023,-0.128978
102,6.024,-0.415316
102,6.025,-0.737604
102,6.026,-0.863732
102,6.027,-0.746399
102,6.028,-0.512401
102,6.029,-0.277652
102,6.03,-0.091613
102,6.031,0.01032
102,6.032,0.023548
102,6.033,0.013386
102,6.034,0.049068
102,6.035,0.118705
102,6.036,0.169386
102,6.037,0.189411
102,6.038,0.191339
102,6.039,0.151578
102,6.04,0.038248
102,6.041,-0.107223
102,6.042,-0.202264
102,6.043,-0.247485
102,6.044,-0.300133
102,6.045,-0.308842
102,6.046,-0.177176
102,6.047,-0.004549
102,6.048,0.035126
102,6.049,-0.012909
102,6.05,-0.008773
102,6.051,0.042943
102,6.052,0.067396
102,6.053,0.063393
102,6.054,0.073358
102,6.055,0.092979
102,6.056,0.079598
102,6.057,0.026147
102,6.058,-0.021458
102,6.059,-0.031337
102,6.06,-0.021509
102,6.061,-0.011208
102,6.062,-0.030822
102,6.063,-0.172485
102,6.064,-0.476421
102,6.065,-0.790015
102,6.066,-0.89662
102,6.067,-0.752169
102,6.068,-0.483522
102,6.069,-0.218237
102,6.07,-0.019898
102,6.071,0.075758
102,6.072,0.076872
102,6.073,0.061563
102,6.074,0.098722
102,6.075,0.160183
102,6.076,0.168911
102,6.077,0.107327
102,6.078,0.029821
102,6.079,-0.023509
102,6.08,-0.064787
102,6.081,-0.099746
102,6.082,-0.122125
102,6.083,-0.158698
102,6.084,-0.18891
102,6.085,-0.092165
102,6.086,0.136431
102,6.087,0.271938
102,6.088,0.178313
102,6.089,0.011092
102,6.09,-0.056588
102,6.091,-0.051012
102,6.092,-0.066629
102,6.093,-0.112846
102,6.094,-0.137919
102,6.095,-0.112224
102,6.096,-0.054847
102,6.097,-0.004344
102,6.098,0.020593
102,6.099,0.015812
102,6.1,-0.022028
102,6.101,-0.06661
102,6.102,-0.083149
102,6.103,-0.086965
102,6.104,-0.073163
102,6.105,0.044761
102,6.106,0.252639
102,6.107,0.341613
102,6.108,0.205151
102,6.109,0.013848
102,6.11,-0.05845
102,6.111,-0.040658
102,6.112,-0.027935
102,6.113,-0.029025
102,6.114,-0.00034
102,6.115,0.060018
102,6.116,0.103671
102,6.117,0.095299
102,6.118,0.049284
102,6.119,-0.007372
102,6.12,-0.06414
102,6.121,-0.095149
102,6.122,-0.080227
102,6.123,-0.074421
102,6.124,-0.140908
102,6.125,-0.226554
102,6.126,-0.238811
102,6.127,-0.20302
102,6.128,-0.193644
102,6.129,-0.185812
102,6.13,-0.122622
102,6.131,-0.026583
102,6.132,0.059698
102,6.133,0.144395
102,6.134,0.236473
102,6.135,0.293373
102,6.136,0.264953
102,6.137,0.159996
102,6.138,0.038374
102,6.139,-0.056968
102,6.14,-0.122741
102,6.141,-0.14725
102,6.142,-0.122084
102,6.143,-0.107713
102,6.144,-0.167149
102,6.145,-0.246884
102,6.146,-0.256452
102,6.147,-0.221915
102,6.148,-0.213007
102,6.149,-0.198209
102,6.15,-0.123413
102,6.151,-0.027159
102,6.152,0.032033
102,6.153,0.067963
102,6.154,0.121227
102,6.155,0.176234
102,6.156,0.177181
102,6.157,0.108128
102,6.158,0.011977
102,6.159,-0.070781
102,6.16,-0.133611
102,6.161,-0.15945
102,6.162,-0.12166
102,6.163,-0.041209
102,6.164,0.061376
102,6.165,0.219765
102,6.166,0.383336
102,6.167,0.368117
102,6.168,0.133123
102,6.169,-0.100947
102,6.17,-0.153188
102,6.171,-0.072875
102,6.172,0.015748
102,6.173,0.068365
102,6.174,0.101593
102,6.175,0.120393
102,6.176,0.106738
102,6.177,0.056489
102,6.178,-0.004196
102,6.179,-0.051275
102,6.18,-0.086393
102,6.181,-0.104115
102,6.182,-0.098592
102,6.183,-0.114853
102,6.184,-0.177887
102,6.185,-0.192162
102,6.186,-0.08216
102,6.187,0.026054
102,6.188,-0.005682
102,6.189,-0.08863
102,6.19,-0.085899
102,6.191,-0.025705
102,6.192,-0.00101
102,6.193,-0.024807
102,6.194,-0.04293
102,6.195,-0.023551
102,6.196,0.007575
102,6.197,0.016088
102,6.198,0.006053
102,6.199,-0.006185
102,6.2,-0.024497
102,6.201,-0.040055
102,6.202,-0.036163
102,6.203,-0.052351
102,6.204,-0.139209
102,6.205,-0.249266
102,6.206,-0.293399
102,6.207,-0.279525
102,6.208,-0.260017
102,6.209,-0.214297
102,6.21,-0.118995
102,6.211,-0.028462
102,6.212,-0.002952
102,6.213,-0.038098
