animal_id,time_ms,voltage_mv
115,-100.0,0.911485
115,-99.0,0.884197
115,-98.0,0.775384
115,-97.0,0.622193
115,-96.0,0.463875
115,-95.0,0.328492
115,-94.0,0.226461
115,-93.0,0.154197
115,-92.0,0.103544
115,-91.0,0.068603
115,-90.0,0.04488
115,-89.0,0.025478
115,-88.0,0.005087
115,-87.0,-0.006996
115,-86.0,0.018795
115,-85.0,0.113043
115,-84.0,0.277064
115,-83.0,0.476918
115,-82.0,0.663024
115,-81.0,0.78965
115,-80.0,0.828696
115,-79.0,0.77891
115,-78.0,0.66423
115,-77.0,0.523939
115,-76.0,0.400017
115,-75.0,0.32243
115,-74.0,0.297701
115,-73.0,0.309548
115,-72.0,0.332189
115,-71.0,0.34551
115,-70.0,0.340536
115,-69.0,0.315247
115,-68.0,0.270088
115,-67.0,0.20785
115,-66.0,0.130543
115,-65.0,0.029627
115,-64.0,-0.110453
115,-63.0,-0.285199
115,-62.0,-0.45666
115,-61.0,-0.578221
115,-60.0,-0.624052
115,-59.0,-0.59551
115,-58.0,-0.513225
115,-57.0,-0.404766
115,-56.0,-0.29374
115,-55.0,-0.196385
115,-54.0,-0.122949
115,-53.0,-0.077685
115,-52.0,-0.056792
115,-51.0,-0.048601
115,-50.0,-0.040271
115,-49.0,-0.026633
115,-48.0,-0.01251
115,-47.0,-0.010068
115,-46.0,-0.039675
115,-45.0,-0.131161
115,-44.0,-0.306151
115,-43.0,-0.544504
115,-42.0,-0.779717
115,-41.0,-0.939333
115,-40.0,-0.984863
115,-39.0,-0.920152
115,-38.0,-0.780202
115,-37.0,-0.613865
115,-36.0,-0.46659
115,-35.0,-0.36857
115,-34.0,-0.328639
115,-33.0,-0.33432
115,-32.0,-0.358944
115,-31.0,-0.373431
115,-30.0,-0.359208
115,-29.0,-0.31625
115,-28.0,-0.259091
115,-27.0,-0.203199
115,-26.0,-0.155824
115,-25.0,-0.120256
115,-24.0,-0.100157
115,-23.0,-0.091751
115,-22.0,-0.081806
115,-21.0,-0.061437
115,-20.0,-0.033428
115,-19.0,-0.005749
115,-18.0,0.013688
115,-17.0,0.018324
115,-16.0,0.00399
115,-15.0,-0.031188
115,-14.0,-0.085705
115,-13.0,-0.151682
115,-12.0,-0.214454
115,-11.0,-0.257833
115,-10.0,-0.273463
115,-9.0,-0.266105
115,-8.0,-0.244259
115,-7.0,-0.197914
115,-6.0,-0.08626
115,-5.0,0.139406
115,-4.0,0.490086
115,-3.0,0.915615
115,-2.0,1.320897
115,-1.0,1.605087
115,0.0,1.704481
115,1.0,1.615281
115,2.0,1.383911
115,3.0,1.082271
115,4.0,0.784032
115,5.0,0.542883
115,6.0,0.378088
115,7.0,0.276883
115,8.0,0.212891
115,9.0,0.165995
115,10.0,0.127675
115,11.0,0.094233
115,12.0,0.064502
115,13.0,0.045488
115,14.0,0.051024
115,15.0,0.086047
115,16.0,0.137032
115,17.0,0.185654
115,18.0,0.222336
115,19.0,0.241349
115,20.0,0.237152
115,21.0,0.209914
115,22.0,0.168132
115,23.0,0.128555
115,24.0,0.113615
115,25.0,0.139787
115,26.0,0.203288
115,27.0,0.278685
115,28.0,0.33494
115,29.0,0.355324
115,30.0,0.3424
115,31.0,0.306862
115,32.0,0.256369
115,33.0,0.192404
115,34.0,0.106768
115,35.0,-0.022129
115,36.0,-0.212422
115,37.0,-0.445514
115,38.0,-0.66327
115,39.0,-0.806601
115,40.0,-0.847963
115,41.0,-0.794298
115,42.0,-0.676857
115,43.0,-0.537914
115,44.0,-0.416882
115,45.0,-0.339929
115,46.0,-0.314178
115,47.0,-0.327941
115,48.0,-0.356873
115,49.0,-0.373248
115,50.0,-0.357564
115,51.0,-0.308389
115,52.0,-0.242333
115,53.0,-0.18559
115,54.0,-0.168686
115,55.0,-0.223978
115,56.0,-0.367039
115,57.0,-0.568511
115,58.0,-0.759979
115,59.0,-0.877767
115,60.0,-0.894724
115,61.0,-0.819843
115,62.0,-0.685399
115,63.0,-0.532463
115,64.0,-0.397307
115,65.0,-0.302797
115,66.0,-0.255214
115,67.0,-0.246436
115,68.0,-0.259396
115,69.0,-0.273694
115,70.0,-0.274161
115,71.0,-0.259301
115,72.0,-0.235767
115,73.0,-0.199133
115,74.0,-0.125182
115,75.0,0.011193
115,76.0,0.209737
115,77.0,0.440883
115,78.0,0.658335
115,79.0,0.813202
115,80.0,0.873104
115,81.0,0.836764
115,82.0,0.727834
115,83.0,0.578438
115,84.0,0.418488
115,85.0,0.270485
115,86.0,0.146658
115,87.0,0.049143
115,88.0,-0.025122
115,89.0,-0.077646
115,90.0,-0.108784
115,91.0,-0.123818
115,92.0,-0.129031
115,93.0,-0.115288
115,94.0,-0.053064
115,95.0,0.083349
115,96.0,0.287147
115,97.0,0.519267
115,98.0,0.727726
115,99.0,0.864663
115,100.0,0.902486
115,101.0,0.844539
115,102.0,0.720061
115,103.0,0.570932
115,104.0,0.439382
115,105.0,0.355441
115,106.0,0.325622
115,107.0,0.331012
115,108.0,0.340583
115,109.0,0.331615
115,110.0,0.298399
115,111.0,0.245047
115,112.0,0.179162
115,113.0,0.114026
115,114.0,0.064247
115,115.0,0.02963
115,116.0,-0.006082
115,117.0,-0.051387
115,118.0,-0.094983
115,119.0,-0.122012
115,120.0,-0.127784
115,121.0,-0.115266
115,122.0,-0.090562
115,123.0,-0.060881
115,124.0,-0.032135
115,125.0,-0.007528
115,126.0,0.011581
115,127.0,0.023766
115,128.0,0.028705
115,129.0,0.030721
115,130.0,0.035591
115,131.0,0.041976
115,132.0,0.041221
115,133.0,0.024091
115,134.0,-0.021689
115,135.0,-0.118104
115,136.0,-0.280629
115,137.0,-0.486739
115,138.0,-0.677669
115,139.0,-0.798372
115,140.0,-0.826129
115,141.0,-0.768472
115,142.0,-0.651516
115,143.0,-0.509319
115,144.0,-0.37282
115,145.0,-0.261923
115,146.0,-0.184107
115,147.0,-0.13762
115,148.0,-0.11413
115,149.0,-0.100146
115,150.0,-0.083953
115,151.0,-0.065068
115,152.0,-0.052023
115,153.0,-0.050829
115,154.0,-0.06319
115,155.0,-0.095164
115,156.0,-0.1528
115,157.0,-0.224128
115,158.0,-0.280974
115,159.0,-0.303317
115,160.0,-0.290803
115,161.0,-0.253835
115,162.0,-0.205077
115,163.0,-0.158531
115,164.0,-0.128997
115,165.0,-0.126902
115,166.0,-0.152163
115,167.0,-0.193953
115,168.0,-0.23535
115,169.0,-0.259054
115,170.0,-0.256225
115,171.0,-0.23321
115,172.0,-0.202472
115,173.0,-0.163299
115,174.0,-0.098353
115,175.0,0.006154
115,176.0,0.143683
115,177.0,0.292823
115,178.0,0.42697
115,179.0,0.517848
115,180.0,0.54562
115,181.0,0.510851
115,182.0,0.432813
115,183.0,0.337402
115,184.0,0.246472
115,185.0,0.173166
115,186.0,0.121126
115,187.0,0.08573
115,188.0,0.059498
115,189.0,0.038853
115,190.0,0.022739
115,191.0,0.006421
115,192.0,-0.013098
115,193.0,-0.022436
115,194.0,0.006787
115,195.0,0.092956
115,196.0,0.225946
115,197.0,0.376035
115,198.0,0.508966
115,199.0,0.592593
125,-100.0,-0.020333
125,-99.0,-0.020241
125,-98.0,-0.018024
125,-97.0,-0.015127
125,-96.0,-0.013368
125,-95.0,-0.013319
125,-94.0,-0.013913
125,-93.0,-0.013545
125,-92.0,-0.01157
125,-91.0,-0.008934
125,-90.0,-0.007443
125,-89.0,-0.008236
125,-88.0,-0.010699
125,-87.0,-0.012714
125,-86.0,-0.012149
125,-85.0,-0.008591
125,-84.0,-0.003922
125,-83.0,-0.001011
125,-82.0,-0.001452
125,-81.0,-0.004313
125,-80.0,-0.006932
125,-79.0,-0.007015
125,-78.0,-0.004315
125,-77.0,-0.000636
125,-76.0,0.00172
125,-75.0,0.0017
125,-74.0,2.3e-05
125,-73.0,-0.001744
125,-72.0,-0.002579
125,-71.0,-0.002752
125,-70.0,-0.003371
125,-69.0,-0.005127
125,-68.0,-0.007278
125,-67.0,-0.007881
125,-66.0,-0.005336
125,-65.0,-0.000164
125,-64.0,0.004693
125,-63.0,0.005819
125,-62.0,0.002133
125,-61.0,-0.003992
125,-60.0,-0.008425
125,-59.0,-0.008343
125,-58.0,-0.004146
125,-57.0,0.001118
125,-56.0,0.004124
125,-55.0,0.003528
125,-54.0,0.000574
125,-53.0,-0.002194
125,-52.0,-0.002984
125,-51.0,-0.002014
125,-50.0,-0.001059
125,-49.0,-0.001747
125,-48.0,-0.00404
125,-47.0,-0.00614
125,-46.0,-0.005854
125,-45.0,-0.002309
125,-44.0,0.003498
125,-43.0,0.009835
125,-42.0,0.015958
125,-41.0,0.022685
125,-40.0,0.031266
125,-39.0,0.041635
125,-38.0,0.051368
125,-37.0,0.056069
125,-36.0,0.051678
125,-35.0,0.037791
125,-34.0,0.018994
125,-33.0,0.002237
125,-32.0,-0.007682
125,-31.0,-0.010613
125,-30.0,-0.009877
125,-29.0,-0.008996
125,-28.0,-0.009136
125,-27.0,-0.008995
125,-26.0,-0.006823
125,-25.0,-0.002717
125,-24.0,0.000897
125,-23.0,0.001149
125,-22.0,-0.00268
125,-21.0,-0.00818
125,-20.0,-0.01138
125,-19.0,-0.009604
125,-18.0,-0.003447
125,-17.0,0.00357
125,-16.0,0.007421
125,-15.0,0.006417
125,-14.0,0.002302
125,-13.0,-0.001278
125,-12.0,-0.001676
125,-11.0,0.000885
125,-10.0,0.003818
125,-9.0,0.00438
125,-8.0,0.001608
125,-7.0,-0.003269
125,-6.0,-0.007343
125,-5.0,-0.005883
125,-4.0,0.008406
125,-3.0,0.043279
125,-2.0,0.098381
125,-1.0,0.154938
125,0.0,0.179149
125,1.0,0.146682
125,2.0,0.06835
125,3.0,-0.012871
125,4.0,-0.054408
125,5.0,-0.044378
125,6.0,-0.002923
125,7.0,0.039655
125,8.0,0.063765
125,9.0,0.066009
125,10.0,0.052919
125,11.0,0.033205
125,12.0,0.013897
125,13.0,-0.000526
125,14.0,-0.008413
125,15.0,-0.011202
125,16.0,-0.012622
125,17.0,-0.016333
125,18.0,-0.023304
125,19.0,-0.031007
125,20.0,-0.035279
125,21.0,-0.033549
125,22.0,-0.026954
125,23.0,-0.019689
125,24.0,-0.016012
125,25.0,-0.017221
125,26.0,-0.021022
125,27.0,-0.023681
125,28.0,-0.022967
125,29.0,-0.019521
125,30.0,-0.015863
125,31.0,-0.014104
125,32.0,-0.014285
125,33.0,-0.014649
125,34.0,-0.013455
125,35.0,-0.010697
125,36.0,-0.008265
125,37.0,-0.008392
125,38.0,-0.011594
125,39.0,-0.015829
125,40.0,-0.017719
125,41.0,-0.015064
125,42.0,-0.008703
125,43.0,-0.002152
125,44.0,0.000918
125,45.0,-0.000587
125,46.0,-0.004545
125,47.0,-0.007512
125,48.0,-0.007401
125,49.0,-0.004763
125,50.0,-0.001901
125,51.0,-0.000832
125,52.0,-0.001819
125,53.0,-0.00351
125,54.0,-0.004294
125,55.0,-0.003705
125,56.0,-0.002806
125,57.0,-0.003242
125,58.0,-0.005647
125,59.0,-0.008736
125,60.0,-0.009995
125,61.0,-0.007647
125,62.0,-0.002475
125,63.0,0.002245
125,64.0,0.003139
125,65.0,-0.000408
125,66.0,-0.005668
125,67.0,-0.008833
125,68.0,-0.007962
125,69.0,-0.004151
125,70.0,-0.000337
125,71.0,0.001027
125,72.0,-0.000413
125,73.0,-0.003014
125,74.0,-0.004627
125,75.0,-0.004359
125,76.0,-0.003225
125,77.0,-0.003073
125,78.0,-0.004677
125,79.0,-0.006754
125,80.0,-0.006827
125,81.0,-0.003171
125,82.0,0.003843
125,83.0,0.012113
125,84.0,0.019534
125,85.0,0.025488
125,86.0,0.030745
125,87.0,0.036072
125,88.0,0.040963
125,89.0,0.043383
125,90.0,0.040739
125,91.0,0.031849
125,92.0,0.018533
125,93.0,0.005073
125,94.0,-0.004416
125,95.0,-0.008544
125,96.0,-0.009031
125,97.0,-0.008785
125,98.0,-0.009496
125,99.0,-0.010681
125,100.0,-0.010658
125,101.0,-0.008447
125,102.0,-0.004955
125,103.0,-0.002404
125,104.0,-0.002512
125,105.0,-0.005002
125,106.0,-0.007725
125,107.0,-0.008251
125,108.0,-0.005645
125,109.0,-0.001166
125,110.0,0.002624
125,111.0,0.003717
125,112.0,0.002076
125,113.0,-0.000477
125,114.0,-0.001799
125,115.0,-0.001175
125,116.0,0.000224
125,117.0,0.000671
125,118.0,-0.000154
125,119.0,-0.000334
125,120.0,0.003256
125,121.0,0.013133
125,122.0,0.030413
125,123.0,0.055309
125,124.0,0.086347
125,125.0,0.116617
125,126.0,0.131774
125,127.0,0.117334
125,128.0,0.072759
125,129.0,0.017449
125,130.0,-0.021087
125,131.0,-0.027121
125,132.0,-0.005962
125,133.0,0.023896
125,134.0,0.045455
125,135.0,0.051692
125,136.0,0.044592
125,137.0,0.029958
125,138.0,0.013452
125,139.0,-0.000808
125,140.0,-0.010532
125,141.0,-0.015528
125,142.0,-0.017601
125,143.0,-0.01944
125,144.0,-0.022878
125,145.0,-0.027644
125,146.0,-0.031595
125,147.0,-0.032407
125,148.0,-0.02948
125,149.0,-0.024581
125,150.0,-0.020632
125,151.0,-0.019572
125,152.0,-0.021033
125,153.0,-0.022838
125,154.0,-0.022856
125,155.0,-0.020663
125,156.0,-0.017678
125,157.0,-0.015769
125,158.0,-0.015653
125,159.0,-0.01646
125,160.0,-0.016642
125,161.0,-0.015343
125,162.0,-0.013123
125,163.0,-0.011524
125,164.0,-0.011806
125,165.0,-0.013741
125,166.0,-0.015508
125,167.0,-0.014998
125,168.0,-0.011536
125,169.0,-0.006562
125,170.0,-0.002676
125,171.0,-0.001744
125,172.0,-0.003581
125,173.0,-0.006282
125,174.0,-0.007763
125,175.0,-0.007215
125,176.0,-0.005443
125,177.0,-0.004024
125,178.0,-0.004011
125,179.0,-0.005169
125,180.0,-0.006309
125,181.0,-0.006354
125,182.0,-0.005258
125,183.0,-0.004088
125,184.0,-0.004205
125,185.0,-0.006048
125,186.0,-0.008529
125,187.0,-0.009724
125,188.0,-0.008383
125,189.0,-0.005021
125,190.0,-0.001678
125,191.0,-0.000433
125,192.0,-0.001831
125,193.0,-0.004514
125,194.0,-0.006379
125,195.0,-0.00624
125,196.0,-0.004645
125,197.0,-0.00325
125,198.0,-0.003333
125,199.0,-0.004762
157,-100.0,0.148108
157,-99.0,0.097656
157,-98.0,0.078583
157,-97.0,0.086018
157,-96.0,0.101845
157,-95.0,0.110019
157,-94.0,0.104329
157,-93.0,0.087179
157,-92.0,0.06458
157,-91.0,0.042097
157,-90.0,0.023133
157,-89.0,0.008747
157,-88.0,-0.001958
157,-87.0,-0.010995
157,-86.0,-0.020237
157,-85.0,-0.03021
157,-84.0,-0.039636
157,-83.0,-0.046106
157,-82.0,-0.047572
157,-81.0,-0.043739
157,-80.0,-0.036386
157,-79.0,-0.028374
157,-78.0,-0.022068
157,-77.0,-0.018286
157,-76.0,-0.016386
157,-75.0,-0.015198
157,-74.0,-0.014012
157,-73.0,-0.012968
157,-72.0,-0.012705
157,-71.0,-0.013699
157,-70.0,-0.015899
157,-69.0,-0.018939
157,-68.0,-0.022618
157,-67.0,-0.027124
157,-66.0,-0.032754
157,-65.0,-0.039393
157,-64.0,-0.046122
157,-63.0,-0.051327
157,-62.0,-0.05339
157,-61.0,-0.051605
157,-60.0,-0.046643
157,-59.0,-0.040212
157,-58.0,-0.034158
157,-57.0,-0.029636
157,-56.0,-0.026822
157,-55.0,-0.025232
157,-54.0,-0.024292
157,-53.0,-0.023737
157,-52.0,-0.023668
157,-51.0,-0.024308
157,-50.0,-0.025657
157,-49.0,-0.027219
157,-48.0,-0.027988
157,-47.0,-0.026896
157,-46.0,-0.023684
157,-45.0,-0.019406
157,-44.0,-0.015553
157,-43.0,-0.012315
157,-42.0,-0.008029
157,-41.0,-0.000719
157,-40.0,0.009709
157,-39.0,0.020446
157,-38.0,0.026666
157,-37.0,0.024034
157,-36.0,0.011619
157,-35.0,-0.00702
157,-34.0,-0.025787
157,-33.0,-0.03957
157,-32.0,-0.046524
157,-31.0,-0.047869
157,-30.0,-0.046133
157,-29.0,-0.043489
157,-28.0,-0.041133
157,-27.0,-0.039544
157,-26.0,-0.03906
157,-25.0,-0.040146
157,-24.0,-0.043105
157,-23.0,-0.047469
157,-22.0,-0.051716
157,-21.0,-0.053783
157,-20.0,-0.052156
157,-19.0,-0.046816
157,-18.0,-0.039319
157,-17.0,-0.031969
157,-16.0,-0.026582
157,-15.0,-0.02363
157,-14.0,-0.022263
157,-13.0,-0.021178
157,-12.0,-0.019692
157,-11.0,-0.01826
157,-10.0,-0.018088
157,-9.0,-0.020125
157,-8.0,-0.023919
157,-7.0,-0.0267
157,-6.0,-0.022999
157,-5.0,-0.005264
157,-4.0,0.033776
157,-3.0,0.096272
157,-2.0,0.172667
157,-1.0,0.238623
157,0.0,0.264384
157,1.0,0.236485
157,2.0,0.172715
157,3.0,0.110765
157,4.0,0.079442
157,5.0,0.081171
157,6.0,0.098488
157,7.0,0.111712
157,8.0,0.110768
157,9.0,0.096155
157,10.0,0.073847
157,11.0,0.050224
157,12.0,0.029572
157,13.0,0.013615
157,14.0,0.00189
157,15.0,-0.007482
157,16.0,-0.016628
157,17.0,-0.026614
157,18.0,-0.036664
157,19.0,-0.044475
157,20.0,-0.047586
157,21.0,-0.045018
157,22.0,-0.03807
157,23.0,-0.029648
157,24.0,-0.022582
157,25.0,-0.01818
157,26.0,-0.015986
157,27.0,-0.014678
157,28.0,-0.013288
157,29.0,-0.011858
157,30.0,-0.011149
157,31.0,-0.011831
157,32.0,-0.013933
157,33.0,-0.016988
157,34.0,-0.020598
157,35.0,-0.024837
157,36.0,-0.030134
157,37.0,-0.036687
157,38.0,-0.043859
157,39.0,-0.050045
157,40.0,-0.053291
157,41.0,-0.052397
157,42.0,-0.047748
157,43.0,-0.041153
157,44.0,-0.034783
157,45.0,-0.030026
157,46.0,-0.02707
157,47.0,-0.025298
157,48.0,-0.024031
157,49.0,-0.023035
157,50.0,-0.022524
157,51.0,-0.022807
157,52.0,-0.023947
157,53.0,-0.025565
157,54.0,-0.026807
157,55.0,-0.026623
157,56.0,-0.024466
157,57.0,-0.020901
157,58.0,-0.017203
157,59.0,-0.013919
157,60.0,-0.009931
157,61.0,-0.00336
157,62.0,0.00637
157,63.0,0.017203
157,64.0,0.024926
157,65.0,0.025193
157,66.0,0.016128
157,67.0,-0.000174
157,68.0,-0.018596
157,69.0,-0.033869
157,70.0,-0.043146
157,71.0,-0.046581
157,72.0,-0.046149
157,73.0,-0.044043
157,74.0,-0.041751
157,75.0,-0.040043
157,76.0,-0.039401
157,77.0,-0.040279
157,78.0,-0.04294
157,79.0,-0.046988
157,80.0,-0.05111
157,81.0,-0.053449
157,82.0,-0.052528
157,83.0,-0.048095
157,84.0,-0.041301
157,85.0,-0.034115
157,86.0,-0.028316
157,87.0,-0.024646
157,88.0,-0.022643
157,89.0,-0.021257
157,90.0,-0.019745
157,91.0,-0.018245
157,92.0,-0.017671
157,93.0,-0.018976
157,94.0,-0.022146
157,95.0,-0.025285
157,96.0,-0.024052
157,97.0,-0.011803
157,98.0,0.018828
157,99.0,0.072003
157,100.0,0.142622
157,101.0,0.211984
157,102.0,0.252731
157,103.0,0.245804
157,104.0,0.197296
157,105.0,0.136616
157,106.0,0.094815
157,107.0,0.083739
157,108.0,0.093806
157,109.0,0.107038
157,110.0,0.110449
157,111.0,0.100752
157,112.0,0.081614
157,113.0,0.058877
157,114.0,0.037359
157,115.0,0.019686
157,116.0,0.006251
157,117.0,-0.004231
157,118.0,-0.01369
157,119.0,-0.023457
157,120.0,-0.033345
157,121.0,-0.041637
157,122.0,-0.046078
157,123.0,-0.045332
157,124.0,-0.039963
157,125.0,-0.032231
157,126.0,-0.024829
157,127.0,-0.019483
157,128.0,-0.016358
157,129.0,-0.014518
157,130.0,-0.012972
157,131.0,-0.011476
157,132.0,-0.010565
157,133.0,-0.010906
157,134.0,-0.01268
157,135.0,-0.015542
157,136.0,-0.019073
157,137.0,-0.02321
157,138.0,-0.028266
157,139.0,-0.034504
157,140.0,-0.041523
157,141.0,-0.047966
157,142.0,-0.051957
157,143.0,-0.052123
157,144.0,-0.048499
157,145.0,-0.042576
157,146.0,-0.036402
157,147.0,-0.031435
157,148.0,-0.028033
157,149.0,-0.025761
157,150.0,-0.024063
157,151.0,-0.022725
157,152.0,-0.021921
157,153.0,-0.021931
157,154.0,-0.022824
157,155.0,-0.024287
157,156.0,-0.025642
157,157.0,-0.026027
157,158.0,-0.024842
157,159.0,-0.02221
157,160.0,-0.018884
157,161.0,-0.015379
157,162.0,-0.011166
157,163.0,-0.004991
157,164.0,0.003726
157,165.0,0.013642
157,166.0,0.021523
157,167.0,0.023659
157,168.0,0.017892
157,169.0,0.00504
157,170.0,-0.011319
157,171.0,-0.026658
157,172.0,-0.037671
157,173.0,-0.043394
157,174.0,-0.044831
157,175.0,-0.043777
157,176.0,-0.041844
157,177.0,-0.040118
157,178.0,-0.039309
157,179.0,-0.039938
157,180.0,-0.042238
157,181.0,-0.045852
157,182.0,-0.049668
157,183.0,-0.052113
157,184.0,-0.051858
157,185.0,-0.04849
157,186.0,-0.042731
157,187.0,-0.036086
157,188.0,-0.030127
157,189.0,-0.025786
157,190.0,-0.023048
157,191.0,-0.021245
157,192.0,-0.019717
157,193.0,-0.018375
157,194.0,-0.017755
157,195.0,-0.018552
157,196.0,-0.020839
157,197.0,-0.023242
157,198.0,-0.02233
157,199.0,-0.01259
201,-100.0,-0.063963
201,-99.0,-0.050294
201,-98.0,-0.034892
201,-97.0,-0.023669
201,-96.0,-0.018957
201,-95.0,-0.019147
201,-94.0,-0.020704
201,-93.0,-0.02084
201,-92.0,-0.018981
201,-91.0,-0.016309
201,-90.0,-0.014209
201,-89.0,-0.013149
201,-88.0,-0.012889
201,-87.0,-0.013642
201,-86.0,-0.016847
201,-85.0,-0.024454
201,-84.0,-0.037012
201,-83.0,-0.052108
201,-82.0,-0.064726
201,-81.0,-0.069706
201,-80.0,-0.064779
201,-79.0,-0.052057
201,-78.0,-0.036863
201,-77.0,-0.024686
201,-76.0,-0.018356
201,-75.0,-0.017186
201,-74.0,-0.018302
201,-73.0,-0.01894
201,-72.0,-0.018073
201,-71.0,-0.016396
201,-70.0,-0.015057
201,-69.0,-0.014417
201,-68.0,-0.013922
201,-67.0,-0.013056
201,-66.0,-0.012418
201,-65.0,-0.013711
201,-64.0,-0.018376
201,-63.0,-0.025867
201,-62.0,-0.033042
201,-61.0,-0.03541
201,-60.0,-0.029653
201,-59.0,-0.015991
201,-58.0,0.001155
201,-57.0,0.014922
201,-56.0,0.019436
201,-55.0,0.012932
201,-54.0,-0.00147
201,-53.0,-0.017794
201,-52.0,-0.030594
201,-51.0,-0.037432
201,-50.0,-0.039032
201,-49.0,-0.037581
201,-48.0,-0.034983
201,-47.0,-0.03248
201,-46.0,-0.031423
201,-45.0,-0.033727
201,-44.0,-0.040926
201,-43.0,-0.052419
201,-42.0,-0.06462
201,-41.0,-0.072239
201,-40.0,-0.071184
201,-39.0,-0.061142
201,-38.0,-0.045948
201,-37.0,-0.031432
201,-36.0,-0.022144
201,-35.0,-0.01912
201,-34.0,-0.020005
201,-33.0,-0.02123
201,-32.0,-0.020534
201,-31.0,-0.01803
201,-30.0,-0.015291
201,-29.0,-0.013562
201,-28.0,-0.012783
201,-27.0,-0.012278
201,-26.0,-0.01233
201,-25.0,-0.014951
201,-24.0,-0.022648
201,-23.0,-0.03591
201,-22.0,-0.05149
201,-21.0,-0.063306
201,-20.0,-0.065772
201,-19.0,-0.057351
201,-18.0,-0.041765
201,-17.0,-0.025894
201,-16.0,-0.015756
201,-15.0,-0.013261
201,-14.0,-0.015831
201,-13.0,-0.018868
201,-12.0,-0.019132
201,-11.0,-0.016598
201,-10.0,-0.013806
201,-9.0,-0.013647
201,-8.0,-0.017223
201,-7.0,-0.022497
201,-6.0,-0.023248
201,-5.0,-0.008217
201,-4.0,0.037275
201,-3.0,0.123122
201,-2.0,0.239593
201,-1.0,0.347846
201,0.0,0.394855
201,1.0,0.352184
201,2.0,0.243536
201,3.0,0.128516
201,4.0,0.05788
201,5.0,0.044334
201,6.0,0.068078
201,7.0,0.100213
201,8.0,0.120707
201,9.0,0.12292
201,10.0,0.109671
201,11.0,0.087828
201,12.0,0.064505
201,13.0,0.044666
201,14.0,0.029579
201,15.0,0.016685
201,16.0,0.001606
201,17.0,-0.018339
201,18.0,-0.041368
201,19.0,-0.061397
201,20.0,-0.071473
201,21.0,-0.068305
201,22.0,-0.054633
201,23.0,-0.03762
201,24.0,-0.02452
201,25.0,-0.018767
201,26.0,-0.018968
201,27.0,-0.020999
201,28.0,-0.021327
201,29.0,-0.019093
201,30.0,-0.01579
201,31.0,-0.013297
201,32.0,-0.012221
201,33.0,-0.011958
201,34.0,-0.012223
201,35.0,-0.014336
201,36.0,-0.020752
201,37.0,-0.032894
201,38.0,-0.048994
201,39.0,-0.063902
201,40.0,-0.071509
201,41.0,-0.068395
201,42.0,-0.05607
201,43.0,-0.040067
201,44.0,-0.026588
201,45.0,-0.019159
201,46.0,-0.017398
201,47.0,-0.018317
201,48.0,-0.01887
201,49.0,-0.01783
201,50.0,-0.015885
201,51.0,-0.014311
201,52.0,-0.013587
201,53.0,-0.013151
201,54.0,-0.012388
201,55.0,-0.011808
201,56.0,-0.013127
201,57.0,-0.017916
201,58.0,-0.02581
201,59.0,-0.033771
201,60.0,-0.037243
201,61.0,-0.032667
201,62.0,-0.019831
201,63.0,-0.002602
201,64.0,0.012532
201,65.0,0.019522
201,66.0,0.015787
201,67.0,0.003378
201,68.0,-0.012431
201,69.0,-0.026117
201,70.0,-0.0345
201,71.0,-0.037466
201,72.0,-0.036775
201,73.0,-0.034384
201,74.0,-0.031774
201,75.0,-0.030428
201,76.0,-0.032265
201,77.0,-0.038899
201,78.0,-0.050034
201,79.0,-0.062482
201,80.0,-0.071148
201,81.0,-0.071758
201,82.0,-0.06348
201,83.0,-0.049485
201,84.0,-0.035097
201,85.0,-0.024846
201,86.0,-0.020289
201,87.0,-0.019829
201,88.0,-0.020416
201,89.0,-0.01977
201,90.0,-0.017561
201,91.0,-0.014904
201,92.0,-0.012928
201,93.0,-0.011815
201,94.0,-0.011168
201,95.0,-0.011258
201,96.0,-0.013736
201,97.0,-0.020777
201,98.0,-0.033017
201,99.0,-0.047898
201,100.0,-0.060124
201,101.0,-0.0644
201,102.0,-0.058651
201,103.0,-0.045393
201,104.0,-0.030325
201,105.0,-0.019113
201,106.0,-0.014421
201,107.0,-0.015005
201,108.0,-0.017252
201,109.0,-0.017931
201,110.0,-0.016194
201,111.0,-0.013629
201,112.0,-0.012681
201,113.0,-0.014699
201,114.0,-0.018524
201,115.0,-0.019499
201,116.0,-0.008698
201,117.0,0.026133
201,118.0,0.094883
201,119.0,0.194025
201,120.0,0.297477
201,121.0,0.362751
201,122.0,0.356707
201,123.0,0.282341
201,124.0,0.179471
201,125.0,0.09637
201,126.0,0.059116
201,127.0,0.063322
201,128.0,0.087296
201,129.0,0.109607
201,130.0,0.118517
201,131.0,0.11228
201,132.0,0.095265
201,133.0,0.07388
201,134.0,0.053519
201,135.0,0.036585
201,136.0,0.021958
201,137.0,0.006369
201,138.0,-0.012753
201,139.0,-0.034625
201,140.0,-0.054643
201,141.0,-0.066798
201,142.0,-0.067435
201,143.0,-0.057695
201,144.0,-0.042924
201,145.0,-0.02958
201,146.0,-0.021761
201,147.0,-0.019597
201,148.0,-0.020258
201,149.0,-0.020501
201,150.0,-0.018832
201,151.0,-0.015884
201,152.0,-0.013165
201,153.0,-0.011555
201,154.0,-0.010964
201,155.0,-0.01127
201,156.0,-0.013398
201,157.0,-0.019219
201,158.0,-0.030009
201,159.0,-0.044595
201,160.0,-0.058894
201,161.0,-0.067639
201,162.0,-0.067322
201,163.0,-0.05828
201,164.0,-0.044481
201,165.0,-0.031218
201,166.0,-0.022292
201,167.0,-0.018455
201,168.0,-0.017859
201,169.0,-0.017897
201,170.0,-0.016993
201,171.0,-0.015162
201,172.0,-0.013257
201,173.0,-0.011864
201,174.0,-0.010931
201,175.0,-0.010311
201,176.0,-0.010487
201,177.0,-0.012596
201,178.0,-0.017535
201,179.0,-0.024774
201,180.0,-0.031879
201,181.0,-0.035312
201,182.0,-0.032187
201,183.0,-0.021984
201,184.0,-0.007272
201,185.0,0.007015
201,186.0,0.01563
201,187.0,0.01546
201,188.0,0.006974
201,189.0,-0.006231
201,190.0,-0.019448
201,191.0,-0.029123
201,192.0,-0.034014
201,193.0,-0.034878
201,194.0,-0.033377
201,195.0,-0.031243
201,196.0,-0.030164
201,197.0,-0.031885
201,198.0,-0.037712
201,199.0,-0.047405
232,-100.0,0.033535
232,-99.0,0.066046
232,-98.0,0.076982
232,-97.0,0.062392
232,-96.0,0.032525
232,-95.0,0.004848
232,-94.0,-0.007859
232,-93.0,-0.004127
232,-92.0,0.008682
232,-91.0,0.021256
232,-90.0,0.027499
232,-89.0,0.025952
232,-88.0,0.018673
232,-87.0,0.009293
232,-86.0,0.001147
232,-85.0,-0.004099
232,-84.0,-0.006889
232,-83.0,-0.009038
232,-82.0,-0.012254
232,-81.0,-0.016889
232,-80.0,-0.021702
232,-79.0,-0.02473
232,-78.0,-0.024649
232,-77.0,-0.021681
232,-76.0,-0.017436
232,-75.0,-0.013876
232,-74.0,-0.01219
232,-73.0,-0.012329
232,-72.0,-0.013384
232,-71.0,-0.014372
232,-70.0,-0.014769
232,-69.0,-0.014487
232,-68.0,-0.013512
232,-67.0,-0.011678
232,-66.0,-0.008865
232,-65.0,-0.005424
232,-64.0,-0.002339
232,-63.0,-0.000817
232,-62.0,-0.001494
232,-61.0,-0.003885
232,-60.0,-0.006526
232,-59.0,-0.007802
232,-58.0,-0.006915
232,-57.0,-0.004324
232,-56.0,-0.001341
232,-55.0,0.000867
232,-54.0,0.002105
232,-53.0,0.003119
232,-52.0,0.004695
232,-51.0,0.006807
232,-50.0,0.008746
232,-49.0,0.010032
232,-48.0,0.01093
232,-47.0,0.011883
232,-46.0,0.012654
232,-45.0,0.012341
232,-44.0,0.010228
232,-43.0,0.006462
232,-42.0,0.001967
232,-41.0,-0.002
232,-40.0,-0.004207
232,-39.0,-0.003912
232,-38.0,-0.001531
232,-37.0,0.001147
232,-36.0,0.001893
232,-35.0,-0.000474
232,-34.0,-0.005377
232,-33.0,-0.011092
232,-32.0,-0.015904
232,-31.0,-0.018841
232,-30.0,-0.019659
232,-29.0,-0.018471
232,-28.0,-0.015525
232,-27.0,-0.011274
232,-26.0,-0.006576
232,-25.0,-0.002678
232,-24.0,-0.00076
232,-23.0,-0.001223
232,-22.0,-0.003295
232,-21.0,-0.005357
232,-20.0,-0.0058
232,-19.0,-0.003883
232,-18.0,-0.000172
232,-17.0,0.003675
232,-16.0,0.005702
232,-15.0,0.004835
232,-14.0,0.002044
232,-13.0,0.000842
232,-12.0,0.005971
232,-11.0,0.019428
232,-10.0,0.035674
232,-9.0,0.041967
232,-8.0,0.028129
232,-7.0,-0.001784
232,-6.0,-0.030242
232,-5.0,-0.040121
232,-4.0,-0.026179
232,-3.0,0.005647
232,-2.0,0.044565
232,-1.0,0.077723
232,0.0,0.091262
232,1.0,0.076979
232,2.0,0.041348
232,3.0,0.003939
232,4.0,-0.016721
232,5.0,-0.01552
232,6.0,-0.000442
232,7.0,0.016349
232,8.0,0.026413
232,9.0,0.027477
232,10.0,0.021797
232,11.0,0.013329
232,12.0,0.005476
232,13.0,-0.000112
232,14.0,-0.003661
232,15.0,-0.006541
232,16.0,-0.010133
232,17.0,-0.014871
232,18.0,-0.019931
232,19.0,-0.023693
232,20.0,-0.02469
232,21.0,-0.022535
232,22.0,-0.018258
232,23.0,-0.013771
232,24.0,-0.010783
232,25.0,-0.009966
232,26.0,-0.010871
232,27.0,-0.012459
232,28.0,-0.013737
232,29.0,-0.014073
232,30.0,-0.013188
232,31.0,-0.011059
232,32.0,-0.007935
232,33.0,-0.004452
232,34.0,-0.001563
232,35.0,-0.000203
232,36.0,-0.000814
232,37.0,-0.003035
232,38.0,-0.00577
232,39.0,-0.007646
232,40.0,-0.007648
232,41.0,-0.005611
232,42.0,-0.00228
232,43.0,0.001216
232,44.0,0.004091
232,45.0,0.006207
232,46.0,0.007771
232,47.0,0.00892
232,48.0,0.00975
232,49.0,0.010509
232,50.0,0.011434
232,51.0,0.012311
232,52.0,0.012392
232,53.0,0.010983
232,54.0,0.008089
232,55.0,0.004433
232,56.0,0.000877
232,57.0,-0.001983
232,58.0,-0.003698
232,59.0,-0.003838
232,60.0,-0.002374
232,61.0,-0.000186
232,62.0,0.001085
232,63.0,-3e-06
232,64.0,-0.003721
232,65.0,-0.009026
232,66.0,-0.014253
232,67.0,-0.017973
232,68.0,-0.019429
232,69.0,-0.018529
232,70.0,-0.015662
232,71.0,-0.011554
232,72.0,-0.007187
232,73.0,-0.003653
232,74.0,-0.001819
232,75.0,-0.001913
232,76.0,-0.003342
232,77.0,-0.004949
232,78.0,-0.005564
232,79.0,-0.004553
232,80.0,-0.002142
232,81.0,0.000606
232,82.0,0.002281
232,83.0,0.002203
232,84.0,0.001676
232,85.0,0.00419
232,86.0,0.013091
232,87.0,0.027152
232,88.0,0.038144
232,89.0,0.035477
232,90.0,0.016087
232,91.0,-0.010679
232,92.0,-0.029572
232,93.0,-0.03056
232,94.0,-0.013655
232,95.0,0.014373
232,96.0,0.044881
232,97.0,0.068879
232,98.0,0.077326
232,99.0,0.064931
232,100.0,0.036009
232,101.0,0.004502
232,102.0,-0.014847
232,103.0,-0.016248
232,104.0,-0.004617
232,105.0,0.010277
232,106.0,0.020582
232,107.0,0.023366
232,108.0,0.01986
232,109.0,0.01314
232,110.0,0.006074
232,111.0,0.000257
232,112.0,-0.004109
232,113.0,-0.007734
232,114.0,-0.011496
232,115.0,-0.015761
232,116.0,-0.020051
232,117.0,-0.023258
232,118.0,-0.024305
232,119.0,-0.022844
232,120.0,-0.019538
232,121.0,-0.01574
232,122.0,-0.01282
232,123.0,-0.01155
232,124.0,-0.011861
232,125.0,-0.013023
232,126.0,-0.014089
232,127.0,-0.014321
232,128.0,-0.013385
232,129.0,-0.011323
232,130.0,-0.008472
232,131.0,-0.005402
232,132.0,-0.00285
232,133.0,-0.001541
232,134.0,-0.001885
232,135.0,-0.003682
232,136.0,-0.006074
232,137.0,-0.007879
232,138.0,-0.008122
232,139.0,-0.006472
232,140.0,-0.003314
232,141.0,0.000533
232,142.0,0.004204
232,143.0,0.007044
232,144.0,0.008752
232,145.0,0.009499
232,146.0,0.00985
232,147.0,0.010301
232,148.0,0.010744
232,149.0,0.010473
232,150.0,0.008881
232,151.0,0.006155
232,152.0,0.003202
232,153.0,0.00087
232,154.0,-0.000673
232,155.0,-0.001736
232,156.0,-0.002425
232,157.0,-0.002379
232,158.0,-0.001307
232,159.0,0.000283
232,160.0,0.001061
232,161.0,-0.000282
232,162.0,-0.004083
232,163.0,-0.009415
232,164.0,-0.014597
232,165.0,-0.01806
232,166.0,-0.019006
232,167.0,-0.017585
232,168.0,-0.014617
232,169.0,-0.01109
232,170.0,-0.007785
232,171.0,-0.00518
232,172.0,-0.003533
232,173.0,-0.002964
232,174.0,-0.003374
232,175.0,-0.004306
232,176.0,-0.005001
232,177.0,-0.00478
232,178.0,-0.003554
232,179.0,-0.001964
232,180.0,-0.000785
232,181.0,0.000262
232,182.0,0.003235
232,183.0,0.010728
232,184.0,0.022465
232,185.0,0.032671
232,186.0,0.032786
232,187.0,0.019227
232,188.0,-0.001629
232,189.0,-0.017831
232,190.0,-0.021216
232,191.0,-0.011833
232,192.0,0.005342
232,193.0,0.02557
232,194.0,0.045701
232,195.0,0.061756
232,196.0,0.067359
232,197.0,0.057075
232,198.0,0.0326
232,199.0,0.004397
249,-100.0,-0.036434
249,-99.0,-0.041576
249,-98.0,-0.041541
249,-97.0,-0.037368
249,-96.0,-0.03171
249,-95.0,-0.027136
249,-94.0,-0.02474
249,-93.0,-0.023958
249,-92.0,-0.023479
249,-91.0,-0.022377
249,-90.0,-0.020586
249,-89.0,-0.018543
249,-88.0,-0.016501
249,-87.0,-0.014275
249,-86.0,-0.011676
249,-85.0,-0.009174
249,-84.0,-0.008038
249,-83.0,-0.009605
249,-82.0,-0.014116
249,-81.0,-0.020066
249,-80.0,-0.024731
249,-79.0,-0.025665
249,-78.0,-0.0222
249,-77.0,-0.015858
249,-76.0,-0.009341
249,-75.0,-0.004837
249,-74.0,-0.002876
249,-73.0,-0.002484
249,-72.0,-0.002295
249,-71.0,-0.001619
249,-70.0,-0.000654
249,-69.0,0.000125
249,-68.0,0.000677
249,-67.0,0.001457
249,-66.0,0.002754
249,-65.0,0.003954
249,-64.0,0.003579
249,-63.0,0.000296
249,-62.0,-0.005828
249,-61.0,-0.012844
249,-60.0,-0.01778
249,-59.0,-0.018375
249,-58.0,-0.014544
249,-57.0,-0.008443
249,-56.0,-0.003032
249,-55.0,-0.000207
249,-54.0,0.000126
249,-53.0,-0.000524
249,-52.0,-0.000667
249,-51.0,0.000111
249,-50.0,0.001224
249,-49.0,0.002007
249,-48.0,0.002508
249,-47.0,0.003369
249,-46.0,0.004904
249,-45.0,0.006289
249,-44.0,0.005773
249,-43.0,0.002012
249,-42.0,-0.004442
249,-41.0,-0.010786
249,-40.0,-0.013258
249,-39.0,-0.009229
249,-38.0,0.00124
249,-37.0,0.015143
249,-36.0,0.027647
249,-35.0,0.034317
249,-34.0,0.033375
249,-33.0,0.02647
249,-32.0,0.017296
249,-31.0,0.00919
249,-30.0,0.003608
249,-29.0,0.000395
249,-28.0,-0.000954
249,-27.0,-0.000593
249,-26.0,0.001158
249,-25.0,0.002953
249,-24.0,0.002555
249,-23.0,-0.001703
249,-22.0,-0.009254
249,-21.0,-0.016973
249,-20.0,-0.020822
249,-19.0,-0.018487
249,-18.0,-0.011113
249,-17.0,-0.002681
249,-16.0,0.00264
249,-15.0,0.003205
249,-14.0,0.000641
249,-13.0,-0.001797
249,-12.0,-0.001786
249,-11.0,0.000612
249,-10.0,0.003465
249,-9.0,0.004597
249,-8.0,0.002784
249,-7.0,-0.001937
249,-6.0,-0.007664
249,-5.0,-0.008791
249,-4.0,0.005
249,-3.0,0.044089
249,-2.0,0.106951
249,-1.0,0.170022
249,0.0,0.195606
249,1.0,0.160226
249,2.0,0.078218
249,3.0,-0.00711
249,4.0,-0.057337
249,5.0,-0.063187
249,6.0,-0.040641
249,7.0,-0.011738
249,8.0,0.009441
249,9.0,0.018961
249,10.0,0.018867
249,11.0,0.013152
249,12.0,0.00578
249,13.0,-0.000301
249,14.0,-0.00411
249,15.0,-0.007046
249,16.0,-0.011893
249,17.0,-0.020586
249,18.0,-0.032221
249,19.0,-0.042943
249,20.0,-0.048144
249,21.0,-0.045582
249,22.0,-0.037112
249,23.0,-0.02755
249,24.0,-0.021438
249,25.0,-0.020263
249,26.0,-0.022133
249,27.0,-0.02379
249,28.0,-0.023115
249,29.0,-0.020231
249,30.0,-0.016732
249,31.0,-0.014023
249,32.0,-0.012299
249,33.0,-0.010873
249,34.0,-0.009372
249,35.0,-0.008588
249,36.0,-0.010088
249,37.0,-0.014765
249,38.0,-0.021491
249,39.0,-0.027137
249,40.0,-0.028286
249,41.0,-0.023557
249,42.0,-0.014779
249,43.0,-0.005896
249,44.0,-0.000377
249,45.0,0.000845
249,46.0,-0.000584
249,47.0,-0.002109
249,48.0,-0.00213
249,49.0,-0.00073
249,50.0,0.00098
249,51.0,0.002066
249,52.0,0.002439
249,53.0,0.002513
249,54.0,0.00235
249,55.0,0.001197
249,56.0,-0.002023
249,57.0,-0.007596
249,58.0,-0.014182
249,59.0,-0.019093
249,60.0,-0.019754
249,61.0,-0.015479
249,62.0,-0.00819
249,63.0,-0.001304
249,64.0,0.002482
249,65.0,0.002753
249,66.0,0.001153
249,67.0,-0.000176
249,68.0,-8e-05
249,69.0,0.001211
249,70.0,0.002771
249,71.0,0.003899
249,72.0,0.004486
249,73.0,0.004678
249,74.0,0.004315
249,75.0,0.002799
249,76.0,-0.000379
249,77.0,-0.004777
249,78.0,-0.00855
249,79.0,-0.00903
249,80.0,-0.004243
249,81.0,0.005556
249,82.0,0.017475
249,83.0,0.027199
249,84.0,0.031232
249,85.0,0.028733
249,86.0,0.021694
249,87.0,0.013478
249,88.0,0.006864
249,89.0,0.002933
249,90.0,0.001283
249,91.0,0.00096
249,92.0,0.001171
249,93.0,0.001313
249,94.0,0.000688
249,95.0,-0.001503
249,96.0,-0.005648
249,97.0,-0.011088
249,98.0,-0.015992
249,99.0,-0.01809
249,100.0,-0.015999
249,101.0,-0.01031
249,102.0,-0.003506
249,103.0,0.001503
249,104.0,0.00322
249,105.0,0.002317
249,106.0,0.000778
249,107.0,0.00025
249,108.0,0.000922
249,109.0,0.001656
249,110.0,0.001144
249,111.0,-0.000622
249,112.0,-0.001319
249,113.0,0.00362
249,114.0,0.019256
249,115.0,0.047946
249,116.0,0.086185
249,117.0,0.123513
249,118.0,0.144832
249,119.0,0.136878
249,120.0,0.097363
249,121.0,0.040092
249,122.0,-0.011439
249,123.0,-0.038928
249,124.0,-0.039559
249,125.0,-0.02364
249,126.0,-0.004612
249,127.0,0.00882
249,128.0,0.014311
249,129.0,0.013506
249,130.0,0.009213
249,131.0,0.003753
249,132.0,-0.001634
249,133.0,-0.006831
249,134.0,-0.012499
249,135.0,-0.019372
249,136.0,-0.027449
249,137.0,-0.03554
249,138.0,-0.041561
249,139.0,-0.043531
249,140.0,-0.040767
249,141.0,-0.034553
249,142.0,-0.027643
249,143.0,-0.022701
249,144.0,-0.020765
249,145.0,-0.02092
249,146.0,-0.021324
249,147.0,-0.020593
249,148.0,-0.018484
249,149.0,-0.015636
249,150.0,-0.01289
249,151.0,-0.010831
249,152.0,-0.009783
249,153.0,-0.00999
249,154.0,-0.011652
249,155.0,-0.014717
249,156.0,-0.018613
249,157.0,-0.022182
249,158.0,-0.02397
249,159.0,-0.022817
249,160.0,-0.018517
249,161.0,-0.012183
249,162.0,-0.005879
249,163.0,-0.00152
249,164.0,0.000211
249,165.0,5.8e-05
249,166.0,-0.000584
249,167.0,-0.000661
249,168.0,8.3e-05
249,169.0,0.001285
249,170.0,0.00238
249,171.0,0.002868
249,172.0,0.002333
249,173.0,0.000461
249,174.0,-0.002816
249,175.0,-0.007108
249,176.0,-0.011527
249,177.0,-0.014922
249,178.0,-0.016259
249,179.0,-0.014997
249,180.0,-0.011357
249,181.0,-0.006415
249,182.0,-0.001782
249,183.0,0.001192
249,184.0,0.002152
249,185.0,0.001789
249,186.0,0.001198
249,187.0,0.001177
249,188.0,0.001931
249,189.0,0.003192
249,190.0,0.004451
249,191.0,0.005098
249,192.0,0.004542
249,193.0,0.00247
249,194.0,-0.000839
249,195.0,-0.004371
249,196.0,-0.006607
249,197.0,-0.006075
249,198.0,-0.002006
249,199.0,0.005207
